phi0,omega,M,Q,R_eff,C_eff
0,1.044465936,0,0,,0
0.0003,1.044379918,0.034045481,0.032708514,229.0666383,0.000148627
0.0006,1.044222012,0.049435779,0.047341129,182.7087268,0.000270572
0.0009,1.044041164,0.060570217,0.058002044,150.0897137,0.00040356
0.0012,1.043845104,0.070213143,0.06739427,129.7346351,0.000541206
0.0015,1.043660545,0.078107935,0.074823662,116.3122087,0.000671537
0.0018,1.043467288,0.085452404,0.08184997,106.1301588,0.000805166
0.0021,1.043269462,0.092238829,0.088356662,98.23541057,0.000938957
0.0024,1.043069697,0.098542995,0.094402306,91.87003061,0.001072635
0.0027,1.042868366,0.1044524,0.100070574,86.59675556,0.001206193
0.003,1.042665742,0.110030583,0.105422317,82.13451529,0.001339639
0.0033,1.042462031,0.115325688,0.110503576,78.29467926,0.00147297
0.0036,1.04225739,0.120375106,0.115350122,74.94465375,0.001606187
0.0039,1.042051949,0.125208592,0.119990419,71.98843093,0.001739288
0.0042,1.04184581,0.129850288,0.124447559,69.35427903,0.001872275
0.0045,1.041639058,0.134320106,0.128740584,66.98762715,0.002005148
0.0048,1.041431764,0.138634696,0.132885419,64.84597727,0.002137907
0.0051,1.041223989,0.142808152,0.136895542,62.89584397,0.00227055
0.0054,1.041015783,0.146852531,0.140782481,61.11007943,0.002403082
0.0057,1.040807193,0.150778243,0.144556189,59.46696663,0.002535496
0.006,1.040598255,0.15459435,0.148225332,57.94820265,0.002667802
0.0063,1.040389005,0.158308802,0.151797505,56.53906521,0.00279999
0.0066,1.040179472,0.161928613,0.155279417,55.22682773,0.002932064
0.0069,1.039969683,0.165460018,0.158677024,54.000872,0.003064025
0.0072,1.039759662,0.16890858,0.161995645,52.85216094,0.003195869
0.0075,1.03954943,0.172279295,0.165240053,51.7728565,0.003327599
0.0078,1.039339007,0.175576665,0.168414549,50.7560938,0.003459223
0.0081,1.039128409,0.178804767,0.17152303,49.7962036,0.003590731
0.0084,1.038917652,0.181967306,0.174569035,48.88811958,0.003722117
0.0087,1.038706752,0.185067662,0.177555792,48.02713074,0.003853398
0.009,1.038495721,0.188108926,0.180486254,47.20940954,0.003984564
0.0093,1.038284572,0.191093938,0.183363134,46.43142596,0.004115616
0.0096,1.038073315,0.194025311,0.186188927,45.68988483,0.00424657
0.0099,1.037861961,0.196905458,0.188965937,44.98234693,0.004377394
0.0102,1.03765052,0.199736611,0.191696296,44.3061062,0.004508106
0.0105,1.037439,0.202520841,0.194381981,43.65890789,0.004638706
0.0108,1.037227409,0.205260075,0.19702483,43.03874682,0.004769193
0.0111,1.037015755,0.207956106,0.199626556,42.44366888,0.004899579
0.0114,1.036804046,0.210610608,0.202188758,41.87229289,0.005029832
0.0117,1.036592288,0.213225149,0.20471293,41.32272487,0.005159997
0.012,1.036380487,0.215801195,0.207200473,40.79386112,0.005290041
0.0123,1.03616865,0.218340126,0.209652701,40.28447784,0.005419957
0.0126,1.035956781,0.220843234,0.212070851,39.79325001,0.005549766
0.0129,1.035744886,0.22331174,0.214456084,39.31906326,0.005679478
0.0132,1.03553297,0.225746793,0.216809498,38.86099979,0.005809084
0.0135,1.035321037,0.228149478,0.219132127,38.41832875,0.005938558
0.0138,1.035109092,0.230520822,0.221424952,37.98999749,0.006067935
0.0141,1.034897138,0.232861795,0.223688896,37.57551626,0.006197168
0.0144,1.034685181,0.235173319,0.22592484,37.17384637,0.006326311
0.0147,1.034473223,0.237456268,0.228133615,36.78442426,0.006455348
0.015,1.034261269,0.23971147,0.230316013,36.40659811,0.006584286
0.0153,1.03404932,0.241939715,0.232472786,36.04005338,0.006713079
0.0156,1.033837382,0.244141754,0.23460465,35.68398742,0.006841773
0.0159,1.033625456,0.246318303,0.236712287,35.33794051,0.006970364
0.0162,1.033413545,0.248470045,0.238796348,35.00142149,0.007098856
0.0165,1.033201653,0.250597631,0.240857453,34.67413346,0.007227221
0.0168,1.032989782,0.252701684,0.242896197,34.35569662,0.007355452
0.0171,1.032777935,0.254782799,0.244913145,34.04533395,0.007483633
0.0174,1.032566113,0.256841546,0.246908842,33.74331165,0.007611628
0.0177,1.032354319,0.258878472,0.248883806,33.44865829,0.007739577
0.018,1.032142556,0.260894098,0.250838537,33.16146648,0.007867387
0.0183,1.031930826,0.262888928,0.252773512,32.88138982,0.007995067
0.0186,1.03171913,0.264863442,0.254689189,32.60799646,0.008122653
0.0189,1.03150747,0.266818103,0.25658601,32.34106691,0.008250133
0.0192,1.031295849,0.268753356,0.258464397,32.08036675,0.008377503
0.0195,1.030327795,0.27066963,0.260324758,31.82735484,0.008504308
0.0198,1.03087273,0.272567334,0.262167485,31.57665085,0.008631927
0.0201,1.030661235,0.274446866,0.263992954,31.33310478,0.008759006
0.0204,1.030449785,0.276308609,0.26580153,31.09518286,0.008885898
0.0207,1.030238381,0.278152929,0.267593563,30.86232446,0.009012702
0.021,1.030027026,0.279980183,0.269369391,30.63416733,0.009139474
0.0213,1.029815721,0.281790713,0.27112934,30.41122119,0.009266011
0.0216,1.029604467,0.28358485,0.272873725,30.19251107,0.009392556
0.0219,1.029393265,0.285362914,0.27460285,29.97861961,0.009518881
0.0222,1.029182117,0.287125215,0.276317009,29.76870092,0.009645205
0.0225,1.028971024,0.288872051,0.278016487,29.5632167,0.009771334
0.0228,1.028759987,0.290603712,0.279701559,29.36171524,0.009897368
0.0231,1.028549007,0.292320478,0.28137249,29.16396447,0.010023345
0.0234,1.028338086,0.294022619,0.28302954,28.96996893,0.010149221
0.0237,1.028127224,0.295710399,0.284672956,28.77987698,0.010274901
0.024,1.027916423,0.297384071,0.286302982,28.59325739,0.010400496
0.0243,1.027705684,0.299043884,0.287919852,28.41003191,0.010525996
0.0246,1.027495007,0.300690077,0.289523793,28.23011744,0.010651393
0.0249,1.027284394,0.302322881,0.291115027,28.05342633,0.010776683
0.0252,1.027073845,0.303942522,0.292693767,27.87986668,0.010901864
0.0255,1.026863362,0.30554922,0.294260221,27.70934269,0.011026939
0.0258,1.026652945,0.307143186,0.295814592,27.54175494,0.011151911
0.0261,1.026442595,0.308724629,0.297357077,27.37700081,0.011276788
0.0264,1.026232313,0.310293749,0.298887865,27.21497478,0.011401581
0.0267,1.0260221,0.31185074,0.300407143,27.05577555,0.011526217
0.027,1.025811957,0.313395794,0.30191509,26.89932965,0.011650692
0.0273,1.025601884,0.314929096,0.303411884,26.74534593,0.011775099
0.0276,1.025391882,0.316450825,0.304897694,26.5937089,0.011899462
0.0279,1.025181951,0.317961156,0.306372686,26.44454987,0.012023693
0.0282,1.024972094,0.319460262,0.307837024,26.29795842,0.012147721
0.0285,1.024762309,0.320948307,0.309290864,26.15341884,0.012271753
0.0288,1.024552598,0.322425453,0.310734362,26.01116904,0.012395654
0.0291,1.024342962,0.32389186,0.312167665,25.87125311,0.012519373
0.0294,1.0241334,0.325347681,0.313590922,25.7330793,0.012643169
0.0297,1.023923915,0.326793066,0.315004273,25.5974965,0.012766603
0.03,1.023714505,0.328228162,0.316407859,25.46348924,0.012890149
0.0303,1.023505173,0.329653113,0.317801815,25.33180789,0.013013407
0.0306,1.023295918,0.331068056,0.319186273,25.20168514,0.013136743
0.0309,1.023086741,0.33247313,0.320561363,25.07381643,0.013259774
0.0312,1.022877642,0.333868466,0.32192721,24.94730791,0.013382946
0.0315,1.022668622,0.335254196,0.323283939,24.82312517,0.013505721
0.0318,1.022459682,0.336630446,0.324631669,24.70031399,0.01362859
0.0321,1.022250822,0.337997339,0.325970519,24.5793148,0.013751292
0.0324,1.022042043,0.339354999,0.327300602,24.46007794,0.013873832
0.0327,1.021833344,0.340703543,0.328622032,24.34217304,0.013996431
0.033,1.021624727,0.342043087,0.329934919,24.2261505,0.014118755
0.0333,1.021416192,0.343373745,0.331239369,24.11165877,0.014240984
0.0336,1.021207739,0.344695627,0.332535489,23.99847103,0.014363233
0.0339,1.020999369,0.346008843,0.333823381,23.88684095,0.014485333
0.0342,1.020791082,0.347313499,0.335103145,23.77688229,0.014607193
0.0345,1.020582878,0.348609698,0.336374881,23.66818891,0.01472904
0.0348,1.020374759,0.349897543,0.337638684,23.56075546,0.014850863
0.0351,1.020166724,0.351177134,0.33889465,23.45468054,0.014972582
0.0354,1.019958774,0.352448567,0.34014287,23.35022976,0.015094009
0.0357,1.019750909,0.353711939,0.341383436,23.24698773,0.015215388
0.036,1.019543129,0.354967344,0.342616436,23.14494544,0.015336711
0.0363,1.019335435,0.356214874,0.343841956,23.04409307,0.015457969
0.0366,1.019127828,0.357454618,0.345060084,22.94442006,0.015579153
0.0369,1.018920307,0.358686665,0.346270901,22.84591506,0.015700254
0.0372,1.018712873,0.359911102,0.347474489,22.74883741,0.015821077
0.0375,1.018505526,0.361128013,0.34867093,22.65287985,0.015941815
0.0378,1.018298266,0.362337482,0.349860302,22.5580216,0.016062467
0.0381,1.018091095,0.363539591,0.351042682,22.4642484,0.016183029
0.0384,1.017884011,0.364734419,0.352218147,22.37154535,0.016303497
0.0387,1.017677016,0.365922046,0.353386769,22.27989693,0.016423866
0.039,1.01747011,0.367102548,0.354548623,22.18928704,0.016544134
0.0393,1.017263293,0.368276001,0.35570378,22.09969898,0.016664299
0.0396,1.017056565,0.36944248,0.35685231,22.0111155,0.01678436
0.0399,1.016849926,0.370602057,0.357994283,21.92351882,0.016904315
0.0402,1.016643378,0.371754806,0.359129766,21.83689067,0.017024164
0.0405,1.01643692,0.372900795,0.360258825,21.75121228,0.017143909
0.0408,1.016230552,0.374040094,0.361381527,21.66646444,0.01726355
0.0411,1.016024274,0.375172771,0.362497935,21.58262752,0.017383091
0.0414,1.015818088,0.376298893,0.363608113,21.49968148,0.017502533
0.0417,1.015611992,0.377418525,0.364712122,21.4176059,0.017621882
0.042,1.015405988,0.378531733,0.365810024,21.33638003,0.017741141
0.0423,1.015200076,0.379638579,0.366901877,21.25598279,0.017860316
0.0426,1.014994255,0.380739126,0.367987742,21.17639283,0.017979414
0.0429,1.014788527,0.381833435,0.369067676,21.09766887,0.018098371
0.0432,1.01458289,0.382921566,0.370141737,21.01992826,0.018217073
0.0435,1.014377347,0.384003578,0.371209978,20.9429549,0.018335692
0.0438,1.014171895,0.385079531,0.372272457,20.86672607,0.018454238
0.0441,1.013966537,0.386149481,0.373329227,20.79121885,0.01857272
0.0444,1.013761272,0.387213485,0.374380341,20.71641019,0.018691148
0.0447,1.0135561,0.388271597,0.375425852,20.64227693,0.018809533
0.045,1.013351022,0.389323874,0.376465811,20.56879583,0.018927889
0.0453,1.013146037,0.390370368,0.37750027,20.4963846,0.019045816
0.0456,1.012941147,0.391411132,0.378529276,20.42463541,0.019163678
0.0459,1.01273635,0.392446219,0.379552881,20.35349037,0.019281519
0.0462,1.012531648,0.39347568,0.380571133,20.28292553,0.019399355
0.0465,1.01232704,0.394499565,0.381584078,20.21291697,0.019517201
0.0468,1.012122526,0.395517924,0.382591764,20.1438112,0.019634712
0.0471,1.011918108,0.396530806,0.383594237,20.07545772,0.019752018
0.0474,1.011713784,0.397538259,0.384591542,20.0076088,0.019869354
0.0477,1.011509556,0.39854033,0.385583725,19.94024021,0.019986737
0.048,1.011305422,0.399537067,0.386570828,19.87345239,0.020104059
0.0483,1.011101385,0.400528515,0.387552897,19.80767717,0.020220873
0.0486,1.010897442,0.401514721,0.388529973,19.74232816,0.020337759
0.0489,1.010693596,0.402495727,0.389502099,19.67738115,0.020454741
0.0492,1.010489845,0.40347158,0.390469315,19.61300851,0.020571631
0.0495,1.010286191,0.404442321,0.391431664,19.54958455,0.020688026
0.0498,1.010082632,0.405407994,0.392389186,19.48650676,0.02080455
0.0501,1.00987917,0.406368641,0.393341919,19.42375124,0.020921224
0.0504,1.009675805,0.407324304,0.394289904,19.36187227,0.021037444
0.0507,1.009472536,0.408275024,0.395233179,19.30056201,0.02115353
0.051,1.009269364,0.409220841,0.396171782,19.2395172,0.021269808
0.0513,1.009066288,0.410161795,0.397105751,19.17903818,0.021385942
0.0516,1.00886331,0.411097926,0.398035123,19.11938877,0.021501625
0.0519,1.008660429,0.412029271,0.398959934,19.05994729,0.021617545
0.0522,1.008457645,0.41295587,0.39988022,19.00091422,0.021733474
0.0525,1.008254958,0.413877761,0.400796017,18.94281475,0.0218488
0.0528,1.008052369,0.414794979,0.40170736,18.88486528,0.021964413
0.0531,1.007849878,0.415707563,0.402614284,18.82731867,0.02208002
0.0534,1.007647484,0.416615549,0.403516822,18.77065466,0.022195046
0.0537,1.007445188,0.417518971,0.404415008,18.71408269,0.022310416
0.054,1.00724299,0.418417866,0.405308876,18.65805749,0.022425586
0.0543,1.007040891,0.419312268,0.406198457,18.60271166,0.022540384
0.0546,1.006838889,0.420202212,0.407083786,18.54740019,0.022655586
0.0549,1.006636986,0.421087731,0.407964893,18.49292575,0.022770206
0.0552,1.006435181,0.42196886,0.408841809,18.43877871,0.02288486
0.0555,1.006233475,0.42284563,0.409714567,18.38471861,0.022999842
0.0558,1.006031867,0.423718076,0.410583197,18.33170906,0.023113943
0.0561,1.005830358,0.424586228,0.411447728,18.27864012,0.023228546
0.0564,1.005628948,0.425450119,0.412308192,18.22618191,0.0233428
0.0567,1.005427636,0.426309781,0.413164617,18.17418516,0.023456886
0.057,1.005226424,0.427165244,0.414017033,18.12218629,0.023571397
0.0573,1.005025311,0.428016538,0.414865468,18.07123198,0.023684967
0.0576,1.004824297,0.428863695,0.415709951,18.0201254,0.023799152
0.0579,1.004623382,0.429706744,0.416550511,17.96976689,0.023912761
0.0582,1.004422567,0.430545715,0.417387174,17.91963484,0.024026478
0.0585,1.004221851,0.431380636,0.418219968,17.86977462,0.024140239
0.0588,1.004021235,0.432211537,0.419048921,17.82058509,0.024253499
0.0591,1.003820718,0.433038447,0.419874059,17.77123837,0.024367376
0.0594,1.003620301,0.433861392,0.420695408,17.72295844,0.02448019
0.0597,1.003419984,0.434680401,0.421512995,17.67439886,0.024593787
0.06,1.003219766,0.435495502,0.422326846,17.62673573,0.024706532
0.0603,1.003019649,0.436306722,0.423136985,17.57901541,0.024819747
0.0606,1.002819631,0.437114087,0.423943439,17.53189644,0.024932505
0.0609,1.002619714,0.437917625,0.424746231,17.4849809,0.025045359
0.0612,1.002419897,0.43871736,0.425545388,17.43841865,0.025158093
0.0615,1.00222018,0.43951332,0.426340932,17.39227277,0.025270609
0.0618,1.002020563,0.440305529,0.427132889,17.34627917,0.025383284
0.0621,1.001821047,0.441094014,0.427921281,17.30086722,0.025495486
0.0624,1.001621632,0.441878799,0.428706133,17.25545356,0.025608066
0.0627,1.001422316,0.442659909,0.429487467,17.21073929,0.025719982
0.063,1.001223102,0.443437368,0.430265307,17.16591616,0.025832432
0.0633,1.001023988,0.444211201,0.431039676,17.12186285,0.025944093
0.0636,1.000824975,0.444981431,0.431810595,17.07764018,0.026056377
0.0639,1.000626062,0.445748083,0.432578087,17.03421073,0.026167816
0.0642,1.000427251,0.44651118,0.433342175,16.99059775,0.026279898
0.0645,1.00022854,0.447270744,0.434102879,16.94775474,0.02639115
0.0648,1.000029931,0.448026799,0.434860221,16.90475999,0.026502997
0.0651,0.999831422,0.448779367,0.435614223,16.86246574,0.026614101
0.0654,0.999633015,0.449528472,0.436364905,16.82009704,0.026725677
0.0657,0.999434708,0.450274134,0.437112289,16.7783137,0.026836674
0.066,0.999236503,0.451016376,0.437856395,16.73657818,0.026947944
0.0663,0.999038399,0.45175522,0.438597243,16.69526776,0.027058878
0.0666,0.998840397,0.452490687,0.439334853,16.65417187,0.02716981
0.0669,0.998642496,0.453222799,0.440069246,16.61329634,0.027280727
0.0672,0.998444696,0.453951576,0.44080044,16.5728458,0.027391287
0.0675,0.998246998,0.454677039,0.441528457,16.53236713,0.027502235
0.0678,0.998049401,0.455399209,0.442253314,16.49256698,0.027612391
0.0681,0.997851906,0.456118106,0.442975031,16.45244725,0.02772342
0.0684,0.997654512,0.456833751,0.443693628,16.41330182,0.027833141
0.0687,0.99745722,0.457546163,0.444409122,16.37371118,0.02794395
0.069,0.99726003,0.458255362,0.445121532,16.33501617,0.02805356
0.0693,0.997062942,0.458961368,0.445830876,16.29609598,0.028163885
0.0696,0.996865956,0.4596642,0.446537173,16.25767542,0.028273673
0.0699,0.996669071,0.460363877,0.447240441,16.21942858,0.028383483
0.0702,0.996472288,0.461060418,0.447940697,16.18124456,0.028493508
0.0705,0.996275607,0.461753843,0.44863796,16.14367329,0.028602774
0.0708,0.996079029,0.462444169,0.449332245,16.10568823,0.028713096
0.0711,0.995882552,0.463131415,0.450023572,16.06879408,0.02882179
0.0714,0.995686177,0.463815599,0.450711956,16.03149555,0.028931524
0.0717,0.995489905,0.46449674,0.451397415,15.99475467,0.029040567
0.072,0.995293734,0.465174855,0.452079966,15.95814611,0.02914968
0.0723,0.995097666,0.465849961,0.452759624,15.92151862,0.029259141
0.0726,0.9949017,0.466522078,0.453436407,15.88560013,0.029367608
0.0729,0.994705837,0.467191221,0.454110331,15.84929453,0.029477099
0.0732,0.994510075,0.467857408,0.454781412,15.81382042,0.02958535
0.0735,0.994314416,0.468520657,0.455449665,15.77821631,0.029694146
0.0738,0.99411886,0.469180983,0.456115107,15.74276972,0.02980295
0.0741,0.993923406,0.469838404,0.456777754,15.70786581,0.029911027
0.0744,0.993728054,0.470492937,0.45743762,15.67259239,0.030020109
0.0747,0.993532805,0.471144597,0.458094722,15.63820521,0.030127792
0.075,0.993337658,0.471793401,0.458749074,15.60364192,0.030236108
0.0753,0.993142614,0.472439366,0.459400691,15.56919679,0.030344492
0.0756,0.992947672,0.473082506,0.460049589,15.53534096,0.03045202
0.0759,0.992752833,0.473722838,0.460695782,15.50113346,0.030560529
0.0762,0.992558097,0.474360378,0.461339285,15.4676514,0.030667899
0.0765,0.992363463,0.474995141,0.461980113,15.4341598,0.030775575
0.0768,0.992168932,0.475627142,0.462618279,15.4005354,0.030883806
0.0771,0.991974504,0.476256397,0.463253799,15.36775567,0.030990628
0.0774,0.991780179,0.476882921,0.463886685,15.3346422,0.031098406
0.0777,0.991585956,0.477506728,0.464516953,15.30188299,0.03120575
0.078,0.991391836,0.478127834,0.465144616,15.26948834,0.03131263
0.0783,0.991197819,0.478746253,0.465769688,15.23676634,0.031420463
0.0786,0.991003905,0.479362001,0.466392183,15.20482296,0.03152697
0.0789,0.990810094,0.47997509,0.467012113,15.17282599,0.031633862
0.0792,0.990616386,0.480585536,0.467629493,15.14060834,0.031741495
0.0795,0.99042278,0.481193354,0.468244335,15.10933034,0.031847431
0.0798,0.990229278,0.481798555,0.468856654,15.07774304,0.031954289
0.0801,0.990035879,0.482401156,0.469466461,15.04624172,0.032061239
0.0804,0.989842582,0.48300117,0.47007377,15.01537812,0.0321671
0.0807,0.989649389,0.48359861,0.470678594,14.98421185,0.032273877
0.081,0.989456299,0.48419349,0.471280945,14.95337592,0.032380213
0.0813,0.989263312,0.484785823,0.471880836,14.92293733,0.032485952
0.0816,0.989070428,0.485375623,0.47247828,14.89220283,0.032592601
0.0819,0.988877647,0.485962903,0.473073288,14.86198073,0.032698394
0.0822,0.988684969,0.486547677,0.473665874,14.83197713,0.032803966
0.0825,0.988492394,0.487129957,0.474256049,14.80168447,0.032910441
0.0828,0.988299923,0.487709755,0.474843825,14.7720242,0.03301577
0.0831,0.988107555,0.488287086,0.475429214,14.7424649,0.033121129
0.0834,0.98791529,0.488861962,0.476012229,14.71262346,0.033227382
0.0837,0.987723128,0.489434394,0.476592881,14.68347267,0.033332333
0.084,0.98753107,0.490004397,0.477171181,14.65436632,0.033437433
0.0843,0.987339114,0.490571981,0.477747142,14.6249848,0.033543418
0.0846,0.987147263,0.49113716,0.478320774,14.59629091,0.03364808
0.0849,0.986955514,0.491699945,0.478892089,14.56764547,0.033752877
0.0852,0.986763869,0.492260349,0.479461099,14.53873189,0.033858548
0.0855,0.986572327,0.492818384,0.480027814,14.51044222,0.033963016
0.0858,0.986380888,0.493374061,0.480592246,14.48226496,0.034067466
0.0861,0.986189553,0.493927393,0.481154406,14.45382662,0.034172777
0.0864,0.985998321,0.494478391,0.481714305,14.42588852,0.034277153
0.0867,0.985807193,0.495027066,0.482271953,14.39818602,0.034381211
0.087,0.985616168,0.49557343,0.482827361,14.37022951,0.034486118
0.0873,0.985425247,0.496117495,0.48338054,14.34259046,0.034590508
0.0876,0.985234429,0.496659272,0.4839315,14.3153686,0.034694131
0.0879,0.985043714,0.497198772,0.484480253,14.28789982,0.03479859
0.0882,0.984853103,0.497736007,0.485026808,14.26050754,0.034903106
0.0885,0.984662595,0.498270987,0.485571176,14.23377152,0.035006252
0.0888,0.984472191,0.498803723,0.486113367,14.20679565,0.03511022
