phi0,omega,M,Q,R_eff,C_eff
0,1,0,0,,0
0.0006,0.999795232,0.050355607,0.050418311,194.3781304,0.00025906
0.0009,0.999639275,0.061876032,0.061819179,162.8045432,0.000380063
0.0012,0.999466082,0.071265189,0.071294299,139.0176927,0.000512634
0.0015,0.99929279,0.079687427,0.079855727,123.8293098,0.000643526
0.0018,0.999118903,0.087166417,0.087202553,113.5277354,0.000767798
0.0021,0.998940732,0.094091936,0.094137361,105.0852621,0.000895387
0.0024,0.998760605,0.100525846,0.100581279,98.27738835,0.001022879
0.0027,0.998578904,0.106557345,0.106623412,92.63703918,0.001150267
0.003,0.998395898,0.112251349,0.112328637,87.86449629,0.001277551
0.0033,0.998211793,0.117656896,0.11774596,83.75755414,0.001404732
0.0036,0.998026749,0.122812109,0.122913472,80.17470694,0.001531806
0.0039,0.997840891,0.127747324,0.127861485,77.0128783,0.001658779
0.0042,0.997654322,0.132487152,0.132614587,74.19574817,0.001785644
0.0045,0.997467128,0.137051891,0.137193058,71.66455004,0.001912409
0.0048,0.997279379,0.141458516,0.141613851,69.37418255,0.002039066
0.0051,0.997091135,0.145721393,0.145891319,67.28852654,0.00216562
0.0054,0.996902448,0.149852813,0.150037735,65.37867173,0.002292075
0.0057,0.996713362,0.153863386,0.154063698,63.62139794,0.002418422
0.006,0.996523915,0.15776235,0.157978431,61.99738192,0.002544662
0.0063,0.996334142,0.161557805,0.161790023,60.49029208,0.002670806
0.0066,0.996144072,0.165256903,0.165505614,59.0869956,0.002796841
0.0069,0.995953731,0.168865996,0.169131547,57.77600086,0.002922771
0.0072,0.995763145,0.172390755,0.172673482,56.54752111,0.0030486
0.0075,0.995572333,0.17583627,0.176136501,55.39320228,0.003174329
0.0078,0.995381314,0.17920713,0.179525184,54.30595094,0.003299954
0.0081,0.995190108,0.182507489,0.182843676,53.27945621,0.003425476
0.0084,0.994998728,0.185741123,0.186095746,52.30842346,0.003550884
0.0087,0.99480719,0.188911474,0.189284828,51.38774741,0.003676197
0.009,0.994615506,0.192021694,0.192414068,50.51316974,0.003801418
0.0093,0.994423689,0.195074676,0.195486351,49.6812249,0.003926527
0.0096,0.994231751,0.198073081,0.198504333,48.88859065,0.00405152
0.0099,0.9940397,0.201019369,0.201470467,48.13191886,0.004176425
0.0102,0.993847547,0.203915812,0.20438702,47.40882052,0.004301221
0.0105,0.9936553,0.206764523,0.207256098,46.71665416,0.004425928
0.0108,0.993462968,0.209567461,0.210079656,46.0535764,0.004550514
0.0111,0.993270559,0.212326455,0.212859516,45.41732024,0.004675011
0.0114,0.993078078,0.21504321,0.215597381,44.80628644,0.004799398
0.0117,0.992885534,0.217719322,0.218294839,44.21874091,0.004923689
0.012,0.992692932,0.220356286,0.220953383,43.65333744,0.005047868
0.0123,0.992500279,0.222955504,0.223574409,43.10854763,0.005171956
0.0126,0.992307579,0.225518297,0.226159233,42.58325221,0.005295939
0.0129,0.992114838,0.228045905,0.228709093,42.07638557,0.005419807
0.0132,0.99192206,0.230539498,0.231225154,41.58672376,0.005543584
0.0135,0.991729252,0.233000183,0.233708518,41.11334062,0.005667265
0.0138,0.991536415,0.235429005,0.236160226,40.6554463,0.005790836
0.0141,0.991343556,0.237826951,0.238581265,40.21218507,0.005914301
0.0144,0.991150677,0.240194961,0.240972566,39.78264542,0.006037682
0.0147,0.990957783,0.242533923,0.243335017,39.36636412,0.006160943
0.015,0.990764877,0.244844682,0.245669459,38.96238893,0.006284129
0.0153,0.990571962,0.247128041,0.247976693,38.57051935,0.006407174
0.0156,0.990379041,0.249384767,0.250257479,38.18983987,0.006530134
0.0159,0.990186119,0.251615586,0.252512543,37.81989007,0.006652996
0.0165,0.989800277,0.256002255,0.256948242,37.11016976,0.006898439
0.0168,0.989607363,0.258159402,0.259130169,36.7696431,0.007020993
0.0171,0.989414458,0.260293241,0.26128896,36.43826199,0.007143404
0.0174,0.989221564,0.262404353,0.263425194,36.11489392,0.007265821
0.0177,0.989028682,0.264493293,0.265539422,35.80012979,0.007388054
0.018,0.988835816,0.266560593,0.267632174,35.49310828,0.007510207
0.0183,0.988642967,0.268606764,0.26970396,35.19348124,0.007632287
0.0186,0.988450138,0.270632296,0.271755266,34.90113998,0.007754254
0.0189,0.988257329,0.272637661,0.273786561,34.61584904,0.007876093
0.0192,0.988064545,0.27462331,0.275798295,34.33716446,0.007997845
0.0195,0.987871785,0.27658968,0.277790901,34.06483754,0.008119507
0.0198,0.987679051,0.278537188,0.279764795,33.79862719,0.00824108
0.0201,0.987486347,0.280466239,0.281720379,33.53856729,0.008362499
0.0204,0.987293672,0.282377221,0.283658039,33.28416905,0.00848383
0.0207,0.987101029,0.284270508,0.285578148,33.03513732,0.008605095
0.021,0.986908418,0.286146462,0.287481064,32.79136968,0.008726274
0.0213,0.986715843,0.288005433,0.289367135,32.55297557,0.008847284
0.0216,0.986523303,0.289847756,0.291236696,32.31913361,0.008968302
0.0219,0.9863308,0.291673757,0.293090069,32.0905403,0.009089088
0.0222,0.986138336,0.293483752,0.294927567,31.86614741,0.009209891
0.0225,0.985945911,0.295278042,0.296749493,31.64652043,0.009330506
0.0228,0.985753528,0.297056924,0.298556138,31.43109782,0.009451052
0.0231,0.985561186,0.298820682,0.300347786,31.2196595,0.009571555
0.0234,0.985368888,0.300569592,0.302124711,31.012482,0.009691891
0.0237,0.985176635,0.30230392,0.303887178,30.8092526,0.009812115
0.024,0.984984426,0.304023926,0.305635444,30.60973091,0.009932264
0.0243,0.984792264,0.305729861,0.307369758,30.41383945,0.010052327
0.0246,0.984600149,0.307421969,0.309090363,30.22149549,0.010172295
0.0249,0.984408083,0.309100485,0.310797493,30.03261133,0.010292162
0.0252,0.984216066,0.310765639,0.312491374,29.84709464,0.010411923
0.0255,0.9840241,0.312417654,0.31417223,29.66484877,0.010531578
0.0258,0.983832184,0.314056745,0.315840273,29.48577309,0.010651128
0.0261,0.98364032,0.315683124,0.317495714,29.30976333,0.010770579
0.0267,0.983256752,0.318898556,0.320769591,28.96650841,0.011009216
0.027,0.983065049,0.320488,0.322388416,28.79903978,0.011128427
0.0273,0.982873401,0.322065517,0.323995417,28.63438192,0.011247511
0.0276,0.982681809,0.323631287,0.325590774,28.47258716,0.011366417
0.0279,0.982490274,0.325185491,0.327174664,28.3132413,0.01148528
0.0282,0.982298796,0.326728301,0.32874726,28.15622257,0.011604124
0.0285,0.982107376,0.328259887,0.330308729,28.001945,0.011722753
0.0288,0.981916014,0.329780413,0.331859234,27.8500194,0.011841299
0.0291,0.981724712,0.331290039,0.333398936,27.70010912,0.011959882
0.0294,0.981533469,0.332788924,0.334927988,27.55294936,0.01207816
0.0297,0.981342287,0.334277218,0.336446542,27.40768006,0.01219648
0.03,0.981151167,0.335755072,0.337954747,27.26468984,0.012314649
0.0303,0.980960107,0.33722263,0.339452745,27.1237818,0.012432729
0.0306,0.980769111,0.338680034,0.340940678,26.98488434,0.012550731
0.0309,0.980578176,0.340127424,0.342418684,26.84804347,0.012668611
0.0312,0.980387306,0.341564934,0.343886895,26.71314583,0.012786399
0.0315,0.980196499,0.342992696,0.345345442,26.58006622,0.012904133
0.0318,0.980005756,0.344410839,0.346794455,26.44906043,0.013021666
0.0321,0.979815079,0.345819491,0.348234057,26.31946986,0.013139303
0.0324,0.979624466,0.347218772,0.34966437,26.19219131,0.013256576
0.0327,0.97943392,0.348608806,0.351085515,26.06635187,0.013373901
0.033,0.97924344,0.349989708,0.352497607,25.94208265,0.013491196
0.0333,0.979053026,0.351361595,0.353900761,25.81985426,0.013608194
0.0336,0.97886268,0.35272458,0.355295089,25.69899638,0.013725228
0.0339,0.978672401,0.354078772,0.356680699,25.57950763,0.013842283
0.0342,0.978482191,0.355424279,0.358057699,25.46206548,0.013958973
0.0345,0.978292049,0.356761208,0.359426192,25.34596863,0.014075659
0.0348,0.978101976,0.358089661,0.360786283,25.23120076,0.014192335
0.0351,0.977911972,0.359409741,0.36213807,25.11775634,0.014308991
0.0354,0.977722037,0.360721546,0.363481652,25.00615798,0.014425309
0.0357,0.977532173,0.362025173,0.364817125,24.89584941,0.014541588
0.036,0.977342379,0.363320718,0.366144583,24.78681124,0.014657824
0.0363,0.977152656,0.364608275,0.367464119,24.67903415,0.014774009
0.0366,0.976963004,0.365887934,0.368775823,24.57250803,0.014890134
0.0369,0.976773423,0.367159785,0.370079784,24.46732586,0.015006126
0.0372,0.976583914,0.368423916,0.371376088,24.3635964,0.015121902
0.0375,0.976394478,0.369680414,0.372664822,24.26105141,0.015237609
0.0378,0.976205113,0.370929363,0.373946068,24.15967756,0.015353241
0.0381,0.976015822,0.372170846,0.375219908,24.05946079,0.015468794
0.0384,0.975826603,0.373404944,0.376486424,23.96038638,0.015584262
0.0387,0.975637458,0.374631737,0.377745693,23.86243892,0.015699642
0.039,0.975448387,0.375851304,0.378997794,23.76560235,0.015814929
0.0393,0.97525939,0.377063721,0.380242802,23.66986002,0.01593012
0.0396,0.975070466,0.378269064,0.381480792,23.57519464,0.016045215
0.0399,0.974881618,0.379467407,0.382711837,23.48158836,0.01616021
0.0402,0.974692844,0.380658823,0.383936009,23.38902278,0.016275106
0.0405,0.974504145,0.381843384,0.385153378,23.29747898,0.016389901
0.0408,0.974315522,0.383021159,0.386364015,23.20693752,0.016504597
0.0411,0.974126974,0.384192218,0.387567987,23.11737849,0.016619195
0.0414,0.973938502,0.385356628,0.388765361,23.02878155,0.016733696
0.0417,0.973750106,0.386514456,0.389956203,22.94112592,0.016848103
0.042,0.973561787,0.387665768,0.391140577,22.85439044,0.01696242
0.0423,0.973373544,0.388810627,0.392318547,22.76855359,0.01707665
0.0426,0.973185378,0.389949098,0.393490176,22.6835935,0.017190799
0.0429,0.972997288,0.391081242,0.394655524,22.599488,0.017304872
0.0432,0.972809277,0.39220712,0.395814653,22.51621464,0.017418875
0.0435,0.972621342,0.393326793,0.396967621,22.43375074,0.017532815
0.0438,0.972433486,0.394440319,0.398114486,22.35223056,0.017646575
0.0441,0.972245707,0.395547758,0.399255307,22.27167649,0.017760125
0.0444,0.972058007,0.396649165,0.40039014,22.19188827,0.01787361
0.0447,0.971870384,0.397744598,0.40151904,22.11284194,0.017987041
0.045,0.971682841,0.398834112,0.402642062,22.03451342,0.018100428
0.0453,0.971495376,0.399917761,0.403759259,21.95687852,0.01821378
0.0456,0.97130799,0.400995599,0.404870685,21.879913,0.018327111
0.0459,0.971120683,0.402067679,0.405976391,21.80393274,0.018440145
0.0462,0.970933455,0.403134052,0.407076429,21.72877016,0.018553008
0.0465,0.970746307,0.404194771,0.40817085,21.65422652,0.018665861
0.0468,0.970559239,0.405249885,0.409259702,21.58027691,0.018778716
0.0471,0.97037225,0.406299444,0.410343035,21.50689647,0.018891589
0.0474,0.970185342,0.407343496,0.411420898,21.43440116,0.019004193
0.0477,0.969998513,0.408382091,0.412493337,21.36274161,0.019116558
0.048,0.969811765,0.409415276,0.413560399,21.29159713,0.01922896
0.0483,0.969625098,0.410443096,0.414622131,21.22094261,0.019341417
0.0486,0.969438511,0.411465599,0.415678577,21.15089066,0.019453819
0.0489,0.969252005,0.41248283,0.416729782,21.08189143,0.019565741
0.0492,0.96906558,0.413494833,0.417775791,21.01332573,0.019677743
0.0495,0.968879236,0.414501652,0.418816647,20.94516848,0.019789846
0.0498,0.968692974,0.415503331,0.419852392,20.87765725,0.019901818
0.0501,0.968506792,0.416499912,0.420883068,20.81108106,0.020013372
0.0504,0.968320693,0.417491438,0.421908718,20.74485526,0.020125059
0.0507,0.968134675,0.41847795,0.422929382,20.67895515,0.0202369
0.051,0.967948739,0.41945949,0.4239451,20.6140627,0.02034822
0.0513,0.967762886,0.420436098,0.424955912,20.54966192,0.020459514
0.0516,0.967577114,0.421407813,0.425961858,20.48552785,0.020571001
0.0519,0.967391425,0.422374675,0.426962976,20.42210857,0.020682227
0.0522,0.967205818,0.423336722,0.427959305,20.35942143,0.020793161
0.0525,0.967020293,0.424293994,0.428950881,20.29694136,0.020904332
0.0528,0.966834852,0.425246527,0.429937743,20.23504154,0.021015352
0.0531,0.966649493,0.426194359,0.430919926,20.17395245,0.021125972
0.0534,0.966464217,0.427137527,0.431897467,20.11301046,0.021236877
0.0537,0.966279024,0.428076067,0.432870402,20.05267078,0.021347584
0.054,0.966093914,0.429010015,0.433838765,19.99306064,0.021457946
0.0543,0.965908887,0.429939405,0.434802592,19.93353766,0.021568645
0.0546,0.965723944,0.430864273,0.435761916,19.87479308,0.021678931
0.0549,0.965539085,0.431784653,0.436716772,19.81654007,0.021789104
0.0552,0.965354309,0.43270058,0.437667192,19.75831464,0.021899671
0.0555,0.965169616,0.433612086,0.438613211,19.70119436,0.022009431
0.0558,0.964985008,0.434519204,0.439554859,19.64417465,0.022119494
0.0561,0.964800483,0.435421968,0.44049217,19.58749335,0.022229591
0.0564,0.964616043,0.43632041,0.441425175,19.53165113,0.022339146
0.0567,0.964431687,0.43721456,0.442353905,19.47573964,0.022449189
0.057,0.964247415,0.438104452,0.443278392,19.42073389,0.022558594
0.0573,0.964063227,0.438990116,0.444198665,19.36593208,0.022668164
0.0576,0.963879124,0.439871582,0.445114755,19.31141104,0.022777806
0.0579,0.963695105,0.44074888,0.446026691,19.25768789,0.022886905
0.0582,0.963511171,0.441622042,0.446934504,19.20379963,0.022996597
0.0585,0.963327321,0.442491096,0.447838221,19.15099241,0.023105387
0.0588,0.963143557,0.443356071,0.448737873,19.09811241,0.023214654
0.0591,0.962959877,0.444216997,0.449633486,19.0458294,0.023323584
0.0594,0.962776283,0.445073901,0.450525089,18.99392437,0.023432435
0.0597,0.962592773,0.445926812,0.45141271,18.94218104,0.023541471
0.06,0.962409349,0.446775759,0.452296376,18.89121678,0.02364992
0.0603,0.962226009,0.447620767,0.453176114,18.84002803,0.023759029
0.0606,0.962042756,0.448461865,0.454051951,18.78996946,0.023867089
0.0609,0.961859587,0.449299079,0.454923912,18.73957678,0.023975946
0.0612,0.961676504,0.450132437,0.455792025,18.69016084,0.024083925
0.0615,0.961493507,0.450961963,0.456656315,18.64060042,0.024192459
0.0618,0.961310595,0.451787684,0.457516807,18.59176793,0.024300415
0.0621,0.961127769,0.452609626,0.458373526,18.54300337,0.024408647
0.0624,0.960945029,0.453427815,0.459226498,18.49476646,0.024516547
0.0627,0.960762375,0.454242274,0.460075746,18.44676077,0.024624501
0.063,0.960579807,0.455053029,0.460921297,18.39913087,0.024732311
0.0633,0.960397324,0.455860105,0.461763172,18.35184654,0.024840013
0.0636,0.960214928,0.456663525,0.462601396,18.30483441,0.0249477
0.0639,0.960032618,0.457463314,0.463435994,18.25823346,0.025055179
0.0642,0.959850394,0.458259496,0.464266987,18.21184916,0.025162711
0.0645,0.959668257,0.459052093,0.465094399,18.16589322,0.025269998
0.0648,0.959486206,0.45984113,0.465918252,18.1201461,0.025377341
0.0651,0.959304241,0.460626628,0.46673857,18.0747965,0.025484471
0.0654,0.959122363,0.461408611,0.467555374,18.0296952,0.025591592
0.0657,0.958940571,0.462187101,0.468368686,17.98491302,0.025698601
0.066,0.958758866,0.46296212,0.469178529,17.94046547,0.025805469
0.0663,0.958577248,0.463733691,0.469984923,17.8962116,0.025912394
0.0666,0.958395716,0.464501834,0.47078789,17.852425,0.026018977
0.0669,0.958214271,0.465266572,0.471587452,17.80866023,0.026125861
0.0672,0.958032914,0.466027926,0.472383628,17.76554108,0.026232127
0.0675,0.957851643,0.466785917,0.47317644,17.72222614,0.026339011
0.0678,0.957670458,0.467540565,0.473965908,17.67978022,0.026444931
0.0681,0.957489361,0.468291892,0.474752052,17.63687588,0.026551862
0.0684,0.957308351,0.469039918,0.475534893,17.59510826,0.026657405
0.0687,0.957127429,0.469784662,0.476314449,17.55286793,0.026763983
0.069,0.956946593,0.470526146,0.477090741,17.51149041,0.026869566
0.0693,0.956765845,0.471264388,0.477863788,17.46994519,0.026975722
0.0696,0.956585184,0.471999409,0.47863361,17.42889133,0.027081436
0.0699,0.95640461,0.472731227,0.479400224,17.38804484,0.027187141
0.0702,0.956224124,0.473459862,0.480163651,17.34727523,0.027293039
0.0705,0.956043725,0.474185334,0.480923908,17.30713034,0.027398264
0.0708,0.955863413,0.47490766,0.481681015,17.26660589,0.027504401
0.0711,0.955683189,0.475626859,0.482434988,17.22716481,0.02760912
0.0714,0.955503053,0.47634295,0.483185847,17.18729307,0.027714833
0.0717,0.955323004,0.477055952,0.48393361,17.14811099,0.027819738
0.072,0.955143044,0.477765882,0.484678293,17.10895698,0.027924898
0.0723,0.95496317,0.478472758,0.485419915,17.06993143,0.028030151
0.0726,0.954783385,0.479176598,0.486158493,17.03149586,0.028134734
0.0729,0.954603687,0.479877419,0.486894044,16.99264738,0.028240298
0.0732,0.954424077,0.48057524,0.487626586,16.95487138,0.028344375
0.0735,0.954244555,0.481270076,0.488356134,16.91675381,0.028449316
0.0738,0.954065121,0.481961946,0.489082706,16.87904512,0.028553863
0.0741,0.953885775,0.482650866,0.489806318,16.8416577,0.028658157
0.0744,0.953706517,0.483336852,0.490526988,16.80397862,0.028763239
0.0747,0.953527347,0.484019923,0.49124473,16.76731997,0.028866863
0.075,0.953348266,0.484700093,0.491959561,16.73027894,0.028971429
0.0753,0.953169272,0.48537738,0.492671497,16.69370158,0.02907548
0.0756,0.952990366,0.486051798,0.493380554,16.65739948,0.029179333
0.0759,0.952811549,0.486723366,0.494086747,16.6207636,0.029284056
0.0762,0.95263282,0.487392097,0.494790093,16.58519763,0.029387175
0.0765,0.952454179,0.488058008,0.495490605,16.54926759,0.029491215
0.0768,0.952275626,0.488721115,0.4961883,16.51363406,0.029595007
0.0771,0.952097162,0.489381433,0.496883193,16.4784488,0.029698271
0.0774,0.951918786,0.490038977,0.497575298,16.44290582,0.029802456
0.0777,0.951740499,0.490693762,0.498264631,16.40822506,0.029905353
0.078,0.9515623,0.491345804,0.498951205,16.37343475,0.030008719
0.0783,0.95138419,0.491995116,0.499635036,16.3385571,0.030112519
0.0786,0.951206168,0.492641715,0.500316138,16.3045145,0.03021505
0.0789,0.951028234,0.493285614,0.500994526,16.27013282,0.030318475
0.0792,0.950850389,0.493926828,0.501670212,16.23610565,0.030421509
0.0795,0.950672633,0.494565372,0.502343212,16.20247804,0.030524058
0.0798,0.950494965,0.495201259,0.50301354,16.16851807,0.030627498
0.0801,0.950317387,0.495834504,0.503681208,16.13528951,0.030729818
0.0804,0.950139896,0.49646512,0.504346231,16.1020892,0.030832342
0.0807,0.949962495,0.497093122,0.505008623,16.06856338,0.030935754
0.081,0.949785182,0.497718523,0.505668396,16.03608071,0.031037417
0.0813,0.949607958,0.498341337,0.506325565,16.00331936,0.031139873
0.0816,0.949430823,0.498961578,0.506980141,15.97045388,0.031242793
0.0819,0.949253776,0.499579258,0.507632139,15.93844928,0.031344283
0.0822,0.949076819,0.500194391,0.508281571,15.90613791,0.031446627
0.0825,0.94889995,0.500806991,0.508928451,15.87391465,0.031549054
0.0828,0.94872317,0.501417069,0.50957279,15.84236334,0.031650396
0.0831,0.948546479,0.50202464,0.510214602,15.81051229,0.031752585
0.0834,0.948369877,0.502629716,0.510853898,15.77887763,0.031854593
0.0837,0.948193364,0.50323231,0.511490693,15.74778918,0.031955743
0.084,0.94801694,0.503832434,0.512124997,15.7164081,0.032057734
0.0843,0.947840605,0.504430101,0.512756824,15.68530807,0.0321594
0.0846,0.947664359,0.505025324,0.513386184,15.65469138,0.032260318
0.0849,0.947488203,0.505618114,0.514013091,15.62378922,0.032362067
0.0852,0.947312135,0.506208484,0.514637556,15.5931696,0.032463476
0.0855,0.947136156,0.506796446,0.515259591,15.56303286,0.032564118
0.0858,0.946960267,0.507382011,0.515879208,15.53261787,0.032665583
0.0861,0.946784466,0.507965193,0.516496418,15.50242435,0.032766823
0.0864,0.946608755,0.508546003,0.517111233,15.47277505,0.032867149
0.0867,0.946433133,0.509124452,0.517723665,15.44285476,0.032968286
0.087,0.9462576,0.509700552,0.518333724,15.41303303,0.033069452
0.0873,0.946082156,0.510274314,0.518941422,15.38387796,0.03316942
0.0876,0.945906802,0.510845751,0.519546771,15.35445918,0.033270189
0.0879,0.945731537,0.511414873,0.52014978,15.32495506,0.033371378
0.0882,0.945556361,0.511981692,0.520750462,15.2963003,0.033470949
0.0885,0.945381274,0.512546219,0.521348827,15.2673891,0.033571308
0.0888,0.945206277,0.513108465,0.521944887,15.23821784,0.033672472
0.0891,0.945031369,0.513668441,0.522538651,15.20999959,0.033771759
0.0894,0.944856551,0.514226157,0.52313013,15.18160134,0.033871668
0.0897,0.944681822,0.514781626,0.523719335,15.15295045,0.033972369
