phi0,omega,M,Q,R_eff,C_eff
0,0.755928946,0,0,,0
0.0006,0.755828336,0.059879719,0.079280735,245.7948521,0.000243617
0.0009,0.755749148,0.074541203,0.100008724,224.6314386,0.000331838
0.0012,0.75565473,0.086182215,0.114084865,199.2487051,0.000432536
0.0015,0.755553215,0.09639567,0.127621245,179.7834983,0.000536176
0.0018,0.755448303,0.105546478,0.139715507,163.9989132,0.00064358
0.0021,0.755343753,0.113927845,0.150712854,152.1517078,0.000748778
0.0024,0.755232047,0.121826561,0.161292569,142.01099,0.000857867
0.0027,0.755122995,0.129099271,0.170864809,134.0006716,0.000963423
0.003,0.755013383,0.135964895,0.179968357,127.1174098,0.001069601
0.0033,0.754901657,0.14252695,0.188664971,121.1807309,0.001176152
0.0036,0.754789104,0.148787101,0.196963112,116.0008762,0.001282638
0.0039,0.754675836,0.154781866,0.204910628,111.4302826,0.001389047
0.0042,0.754561939,0.160541004,0.212547018,107.3579364,0.001495381
0.0045,0.754447484,0.166089099,0.219904858,103.6992174,0.001601643
0.0048,0.754332528,0.171446701,0.227011331,100.3884736,0.001707833
0.0051,0.754217121,0.176631188,0.233889407,97.37374132,0.001813951
0.0054,0.754101308,0.181657362,0.240558607,94.61340461,0.001919996
0.0057,0.753985127,0.186538038,0.247035865,92.07351947,0.002025968
0.006,0.753868609,0.19128437,0.253335923,89.7261485,0.002131869
0.0063,0.753751783,0.195906141,0.259471705,87.5481916,0.002237695
0.0066,0.753634676,0.200411985,0.265454617,85.52009713,0.002343449
0.0069,0.753517308,0.20480957,0.27129479,83.625387,0.002449132
0.0072,0.7533997,0.209105742,0.277001268,81.850081,0.002554741
0.0075,0.75328187,0.213306644,0.282582166,80.18216076,0.002660276
0.0078,0.753163833,0.217417815,0.288044797,78.61106921,0.002765741
0.0081,0.753045606,0.221444266,0.293395783,77.12781164,0.002871134
0.0084,0.7529272,0.225390553,0.298641138,75.72460126,0.002976451
0.0087,0.752808628,0.22926083,0.303786349,74.39433338,0.003081698
0.009,0.752689902,0.233058897,0.308836434,73.13090548,0.003186873
0.0093,0.75257103,0.236788244,0.313795999,71.9288714,0.003291978
0.0096,0.752452023,0.240452081,0.318669285,70.78351859,0.003397007
0.0099,0.75233289,0.244053373,0.323460204,69.69047638,0.003501962
0.0102,0.752213638,0.247594862,0.328172376,68.64578123,0.003606848
0.0105,0.752094274,0.25107909,0.332809158,67.64600863,0.003711662
0.0108,0.751974806,0.254508424,0.337373672,66.68804888,0.003816402
0.0111,0.751855241,0.257885066,0.341868825,65.76899226,0.003921074
0.0114,0.751735583,0.26121107,0.346297329,64.88636147,0.00402567
0.0117,0.751615839,0.264488361,0.350661722,64.03767721,0.004130199
0.012,0.751496013,0.267718738,0.35496438,63.22095207,0.004234652
0.0123,0.751376112,0.270903893,0.359207533,62.43415682,0.004339033
0.0126,0.751256139,0.274045413,0.363393277,61.67548681,0.004443344
0.0129,0.751136099,0.277144794,0.367523585,60.94332439,0.004547583
0.0132,0.751015996,0.280203447,0.371600317,60.23613751,0.00465175
0.0135,0.750895834,0.283222701,0.375625228,59.55258414,0.004755842
0.0138,0.750775616,0.286203816,0.379599977,58.89131848,0.004859864
0.0141,0.750655346,0.28914798,0.383526135,58.25113104,0.004963817
0.0144,0.750535028,0.292056324,0.387405189,57.630911,0.005067703
0.0147,0.750414663,0.294929918,0.391238551,57.02979117,0.005171506
0.015,0.750294257,0.297769777,0.395027563,56.44665566,0.005275242
0.0153,0.75017381,0.30057687,0.398773497,55.88064733,0.005378908
0.0156,0.750053326,0.303352115,0.402477568,55.33092073,0.005482506
0.0159,0.749932808,0.30609639,0.406140931,54.79677048,0.00558603
0.0162,0.749812258,0.308810531,0.409764687,54.2774348,0.005689483
0.0165,0.749691677,0.311495334,0.413349888,53.77229585,0.005792859
0.0168,0.749571069,0.314151563,0.416897539,53.28063054,0.005896168
0.0171,0.749450436,0.316779947,0.4204086,52.80186774,0.005999408
0.0174,0.749329779,0.319381181,0.423883989,52.33540185,0.006102584
0.0177,0.749209101,0.321955935,0.427324587,51.88091698,0.006205672
0.018,0.749088403,0.324504848,0.430731237,51.43764147,0.006308704
0.0183,0.748967687,0.327028534,0.434104747,51.00536463,0.00641165
0.0186,0.748846955,0.329527581,0.437445893,50.58344706,0.006514534
0.0189,0.748726208,0.332002557,0.44075542,50.17154379,0.006617348
0.0192,0.748605449,0.334454003,0.444034045,49.76928685,0.006720088
0.0195,0.748484678,0.336882444,0.447282455,49.37628756,0.006822758
0.0198,0.748363897,0.339288382,0.450501314,48.99213885,0.006925364
0.0201,0.748243108,0.341672302,0.45369126,48.61659174,0.007027895
0.0204,0.748122312,0.344034669,0.456852905,48.24935634,0.007130347
0.0207,0.748001509,0.346375935,0.459986844,47.89000716,0.007232739
0.021,0.747880702,0.348696533,0.463093647,47.53830735,0.007335064
0.0213,0.747759892,0.350996881,0.466173866,47.19412601,0.0074373
0.0216,0.747639079,0.353277385,0.469228031,46.85703214,0.007539474
0.0219,0.747518266,0.355538433,0.472256657,46.52682091,0.00764158
0.0222,0.747397452,0.357780404,0.475260241,46.20327575,0.007743616
0.0225,0.74727664,0.360003662,0.478239263,45.88616934,0.007845581
0.0228,0.747155829,0.362208561,0.481194188,45.57526459,0.007947481
0.0231,0.747035022,0.364395442,0.484125463,45.27031575,0.008049324
0.0234,0.746914219,0.366564636,0.487033526,44.97142255,0.008151057
0.0237,0.74679342,0.368716462,0.489918797,44.67805254,0.008252743
0.024,0.746672628,0.370851232,0.492781684,44.39012522,0.008354363
0.0243,0.746551842,0.372969247,0.495622584,44.10757869,0.008455899
0.0246,0.746431064,0.375070798,0.49844188,43.83012579,0.008557374
0.0249,0.746310294,0.377156168,0.501239944,43.55759103,0.008658793
0.0252,0.746189534,0.379225632,0.504017138,43.29006289,0.008760108
0.0255,0.746068783,0.381279458,0.506773814,43.02714133,0.008861371
0.0258,0.745948043,0.383317903,0.50951031,42.76873464,0.008962573
0.0261,0.745827315,0.385341221,0.512226959,42.51474537,0.009063708
0.0264,0.745706599,0.387349656,0.514924082,42.26507061,0.00916477
0.0267,0.745585895,0.389343445,0.517601992,42.01960233,0.009265758
0.027,0.745465205,0.39132282,0.520260993,41.77822768,0.009366669
0.0273,0.74534453,0.393288006,0.522901382,41.54082938,0.009467505
0.0276,0.745223869,0.395239223,0.525523445,41.30728606,0.009568269
0.0279,0.745103223,0.397176683,0.528127463,41.07747261,0.009668966
0.0282,0.744982593,0.399100595,0.530713709,40.85126061,0.009769603
0.0285,0.74486198,0.40101116,0.533282449,40.62851866,0.009870189
0.0288,0.744741384,0.402908576,0.535833942,40.40934493,0.009970678
0.0291,0.744620806,0.404793035,0.538368439,40.19356296,0.010071091
0.0294,0.744500246,0.406664724,0.540886188,39.98089408,0.010171477
0.0297,0.744379705,0.408523826,0.543387428,39.77162326,0.010271741
0.03,0.744259183,0.410370519,0.545872393,39.56533303,0.010371972
0.0303,0.74413868,0.412204977,0.548341312,39.36215982,0.010472113
0.0306,0.744018198,0.414027369,0.550794406,39.16186779,0.010572207
0.0309,0.743897737,0.415837861,0.553231893,38.96458755,0.0106722
0.0312,0.743777297,0.417636614,0.555653986,38.76991889,0.010772182
0.0315,0.743656878,0.419423788,0.558060892,38.57828164,0.010872018
0.0318,0.743536482,0.421199535,0.560452813,38.38920295,0.010971823
0.0321,0.743416108,0.422964006,0.562829947,38.20263424,0.011071593
0.0324,0.743295757,0.424717349,0.565192487,38.0188413,0.011171233
0.0327,0.743175429,0.426459708,0.567540622,37.83751825,0.011270816
0.033,0.743055125,0.428191224,0.569874538,37.65858388,0.011370349
0.0333,0.742934845,0.429912033,0.572194413,37.48200574,0.011469825
0.0336,0.74281459,0.431622271,0.574500426,37.3077496,0.011569239
0.0339,0.742694359,0.43332207,0.576792749,37.13589482,0.011668551
0.0342,0.742574154,0.435011558,0.579071551,36.96629087,0.01176779
0.0345,0.742453974,0.436690862,0.581336997,36.79886056,0.011866967
0.0348,0.74233382,0.438360104,0.583589249,36.63356318,0.011966079
0.0351,0.742213693,0.440019406,0.585828467,36.47035655,0.012065125
0.0354,0.742093592,0.441668887,0.588054804,36.30919715,0.012164105
0.0357,0.741973518,0.443308662,0.590268414,36.15004018,0.01226302
0.036,0.741853472,0.444938845,0.592469445,35.99283962,0.012361871
0.0363,0.741733453,0.446559547,0.594658043,35.83754834,0.012460661
0.0366,0.741613461,0.448170877,0.596834351,35.68419084,0.012559368
0.0369,0.741493498,0.449772943,0.598998509,35.5327621,0.012657979
0.0372,0.741373564,0.451365848,0.601150655,35.38312744,0.012756528
0.0375,0.741253658,0.452949697,0.603290923,35.2352355,0.012855021
0.0378,0.741133782,0.454524589,0.605419445,35.08903421,0.012953465
0.0381,0.741013934,0.456090623,0.607536351,34.94447081,0.013051868
0.0384,0.740894117,0.457647897,0.609641768,34.80176795,0.013150134
0.0387,0.740774329,0.459196505,0.611735821,34.66069514,0.013248335
0.039,0.740654571,0.460736541,0.613818631,34.52112797,0.013346509
0.0393,0.740534844,0.462268097,0.61589032,34.3830741,0.013444641
0.0396,0.740415147,0.463791262,0.617951003,34.24681596,0.01354261
0.0399,0.740295481,0.465306125,0.620000798,34.11192448,0.013640571
0.0402,0.740175847,0.466812772,0.622039818,33.97843764,0.0137385
0.0405,0.740056244,0.468311288,0.624068174,33.84665869,0.013836264
0.0408,0.739936672,0.469801758,0.626085975,33.71610225,0.013934047
0.0411,0.739817132,0.471284263,0.62809333,33.58707637,0.014031714
0.0414,0.739697624,0.472758884,0.630090343,33.45942344,0.01412932
0.0417,0.739578149,0.474225701,0.632077119,33.33302833,0.014226901
0.042,0.739458706,0.47568479,0.634053759,33.20815212,0.014324338
0.0423,0.739339295,0.477136229,0.636020364,33.08435441,0.014421809
0.0426,0.739219918,0.478580092,0.637977032,32.96212335,0.014519092
0.0429,0.739100574,0.480016455,0.63992386,32.8408843,0.014616429
0.0432,0.738981263,0.481445389,0.641860942,32.72116255,0.014713578
0.0435,0.738861985,0.482866966,0.643788374,32.6024383,0.014810762
0.0438,0.738742741,0.484281256,0.645706245,32.48508645,0.014907803
0.0441,0.738623531,0.485688329,0.647614648,32.36882828,0.015004817
0.0444,0.738504355,0.487088253,0.649513671,32.25370386,0.015101777
0.0447,0.738385214,0.488481094,0.651403401,32.13985853,0.015198608
0.045,0.738266107,0.489866918,0.653283924,32.02689931,0.015295484
0.0453,0.738147034,0.49124579,0.655155326,31.91532672,0.015392159
0.0456,0.738027996,0.492617774,0.657017689,31.80471373,0.015488829
0.0459,0.737908993,0.493982933,0.658871096,31.69502483,0.015585504
0.0462,0.737790026,0.495341328,0.660715628,31.58669474,0.015681961
0.0465,0.737671093,0.49669302,0.662551363,31.47923066,0.015778436
0.0468,0.737552196,0.498038069,0.664378381,31.37263244,0.015874921
0.0471,0.737433335,0.499376533,0.666196757,31.26736445,0.015971175
0.0474,0.73731451,0.500708472,0.668006569,31.16295406,0.016067426
0.0477,0.73719572,0.502033942,0.66980789,31.05939373,0.016163675
0.048,0.737076966,0.503353,0.671600794,30.95686173,0.01625982
0.0483,0.736958249,0.5046657,0.673385354,30.85539905,0.016355831
0.0486,0.736839568,0.505972097,0.675161641,30.75476718,0.016451827
0.0489,0.736720924,0.507272246,0.676929725,30.65496358,0.016547801
0.0492,0.736602316,0.508566199,0.678689676,30.5560556,0.016643712
0.0495,0.736483745,0.509854009,0.680441562,30.45823345,0.016739448
0.0498,0.736365211,0.511135726,0.68218545,30.36121616,0.016835153
0.0501,0.736246714,0.512411403,0.683921406,30.26499996,0.016930825
0.0504,0.736128254,0.513681088,0.685649495,30.16958078,0.017026458
0.0507,0.736009832,0.514944831,0.687369783,30.07495427,0.017122049
0.051,0.735891447,0.516202681,0.689082332,29.98130654,0.017217485
0.0513,0.7357731,0.517454686,0.690787205,29.88848897,0.017312842
0.0516,0.73565479,0.518700892,0.692484464,29.79643531,0.017408153
0.0519,0.735536518,0.519941347,0.694174169,29.70514014,0.017503413
0.0522,0.735418285,0.521176096,0.695856381,29.61459777,0.017598622
0.0525,0.735300089,0.522405185,0.697531159,29.52480231,0.017693774
0.0528,0.735181931,0.523628659,0.699198561,29.43574762,0.017788869
0.0531,0.735063812,0.524846561,0.700858644,29.34742732,0.017883904
0.0534,0.734945731,0.526058935,0.702511465,29.25983482,0.017978876
0.0537,0.734827689,0.527265824,0.704157081,29.17306428,0.018073721
0.054,0.734709686,0.528467271,0.705795546,29.08700778,0.018168499
0.0543,0.734591721,0.529663316,0.707426916,29.00164391,0.018263217
0.0546,0.734473795,0.530854002,0.709051243,28.91696522,0.018357874
0.0549,0.734355908,0.532039369,0.710668581,28.83296409,0.018452469
0.0552,0.73423806,0.533219457,0.712278983,28.74963269,0.018547001
0.0555,0.734120252,0.534394306,0.713882499,28.66696302,0.018641469
0.0558,0.734002482,0.535563955,0.715479182,28.5849469,0.018735874
0.0561,0.733884752,0.536728442,0.717069081,28.50357597,0.018830214
0.0564,0.733767062,0.537887807,0.718652246,28.42284171,0.018924491
0.0567,0.733649411,0.539042085,0.720228726,28.34273545,0.019018704
0.057,0.7335318,0.540191316,0.72179857,28.26324835,0.019112853
0.0573,0.733414228,0.541335534,0.723361826,28.18437142,0.01920694
0.0576,0.733296697,0.542474777,0.72491854,28.10609555,0.019300965
0.0579,0.733179205,0.543609081,0.72646876,28.02841147,0.01939493
0.0582,0.733061753,0.54473848,0.728012531,27.9513098,0.019488836
0.0585,0.732944342,0.54586301,0.7295499,27.87478102,0.019582683
0.0588,0.732826971,0.546982705,0.73108091,27.79887343,0.019676434
0.0591,0.73270964,0.548097599,0.732605607,27.72359115,0.019770079
0.0594,0.732592349,0.549207727,0.734124035,27.64886526,0.019863662
0.0597,0.732475099,0.55031312,0.735636236,27.57468569,0.019957186
0.06,0.73235789,0.551413813,0.737142253,27.50104228,0.020050651
0.0603,0.732240721,0.552509837,0.73864213,27.42792476,0.020144063
0.0606,0.732123593,0.553601225,0.740135907,27.35532281,0.020237423
0.0609,0.732006506,0.554688009,0.741623626,27.283226,0.020330734
0.0612,0.731889459,0.555770219,0.743105328,27.21162387,0.020424001
0.0615,0.731772454,0.556847887,0.744581052,27.14050587,0.020517226
0.0618,0.73165549,0.557921043,0.74605084,27.06997794,0.020610325
0.0621,0.731538566,0.558989718,0.747514731,27.00004812,0.020703286
0.0624,0.731421684,0.560053942,0.748972763,26.93058193,0.020796207
0.0627,0.731304843,0.561113744,0.750424975,26.86156848,0.020889091
0.063,0.731188044,0.562169153,0.751871404,26.79299682,0.020981944
0.0633,0.731071286,0.563220199,0.75331209,26.72485598,0.02107477
0.0636,0.730954569,0.56426691,0.754747068,26.65713498,0.021167575
0.0639,0.730837894,0.565309314,0.756176376,26.59011661,0.021260129
0.0642,0.730721261,0.56634744,0.75760005,26.52353413,0.021352639
0.0645,0.730604669,0.567381314,0.759018127,26.45734885,0.021445131
0.0648,0.730488119,0.568410965,0.760430641,26.39154956,0.021537612
0.0651,0.730371611,0.569436419,0.761837627,26.32612505,0.021630089
0.0654,0.730255145,0.570457703,0.763239122,26.26127634,0.021722391
0.0657,0.73013872,0.571474843,0.764635158,26.19695504,0.021814552
0.066,0.730022338,0.572487867,0.766025771,26.13298462,0.021906716
0.0663,0.729905998,0.573496799,0.767410994,26.06935373,0.021998888
0.0666,0.7297897,0.574501665,0.768790859,26.00605108,0.022091077
0.0669,0.729673444,0.575502491,0.770165401,25.94344755,0.022182961
0.0672,0.72955723,0.576499301,0.771534652,25.88120761,0.022274822
0.0675,0.729441059,0.577492122,0.772898644,25.81927101,0.022366709
0.0678,0.72932493,0.578480976,0.774257408,25.7576264,0.022458629
0.0681,0.729208843,0.579465889,0.775610978,25.69657743,0.022550314
0.0684,0.729092799,0.580446884,0.776959383,25.63596477,0.022641897
0.0687,0.728976797,0.581423985,0.778302655,25.57561851,0.022733526
0.069,0.728860838,0.582397217,0.779640824,25.51552735,0.022825208
0.0693,0.728744922,0.583366601,0.780973921,25.45607577,0.022916596
0.0696,0.728629048,0.584332162,0.782301975,25.39698305,0.023007936
0.0699,0.728513218,0.585293921,0.783625017,25.33811932,0.023099344
0.0702,0.72839743,0.586251903,0.784943076,25.27954167,0.023190765
0.0705,0.728281684,0.587206128,0.786256181,25.22165574,0.023281823
0.0708,0.728165982,0.588156619,0.78756436,25.16397228,0.023372964
0.0711,0.728050323,0.589103399,0.788867642,25.10648014,0.023464197
0.0714,0.727934707,0.590046489,0.790166056,25.04956695,0.023555157
0.0717,0.727819134,0.59098591,0.791459629,24.99301486,0.023646043
0.072,0.727703604,0.591921684,0.792748389,24.93662732,0.023737039
0.0723,0.727588117,0.592853831,0.794032363,24.88064193,0.023827915
0.0726,0.727472673,0.593782373,0.795311579,24.82517076,0.023918562
0.0729,0.727357273,0.59470733,0.796586063,24.76983717,0.024009336
0.0732,0.727241915,0.595628724,0.797855841,24.71480112,0.024100082
0.0735,0.727126602,0.596546573,0.799120941,24.66035904,0.024190506
0.0738,0.727011331,0.597460898,0.800381389,24.60602741,0.024281079
0.0741,0.726896104,0.59837172,0.801637209,24.55196044,0.024371647
0.0744,0.726780921,0.599279057,0.802888428,24.49849439,0.024461873
0.0747,0.726665781,0.60018293,0.804135071,24.44511161,0.024552268
0.075,0.726550685,0.601083357,0.805377163,24.39203157,0.024642612
0.0753,0.726435632,0.601980358,0.80661473,24.33948745,0.024732664
0.0756,0.726320623,0.602873951,0.807847794,24.28699945,0.024822908
0.0759,0.726205658,0.603764157,0.809076382,24.23492235,0.024912981
0.0762,0.726090736,0.604650992,0.810300517,24.18324517,0.025002889
0.0765,0.725975858,0.605534476,0.811520223,24.13159707,0.025093013
0.0768,0.725861024,0.606414627,0.812735524,24.08053705,0.02518277
0.0771,0.725746234,0.607291463,0.813946443,24.02967112,0.025272567
0.0774,0.725631488,0.608165001,0.815153004,23.97887268,0.025362535
0.0777,0.725516786,0.609035261,0.81635523,23.92877675,0.025452002
0.078,0.725402128,0.609902259,0.817553143,23.87866587,0.025541723
0.0783,0.725287513,0.610766012,0.818746766,23.82891051,0.025631302
0.0786,0.725172943,0.611626539,0.819936122,23.77953969,0.025720706
0.0789,0.725058417,0.612483856,0.821121233,23.73012731,0.025810391
0.0792,0.724943935,0.613337981,0.82230212,23.68142447,0.025899539
0.0795,0.724829497,0.614188929,0.823478807,23.63272165,0.025988921
0.0798,0.724715103,0.615036718,0.824651313,23.58431525,0.02607821
0.0801,0.724600754,0.615881365,0.825819662,23.53630829,0.026167288
0.0804,0.724486449,0.616722885,0.826983874,23.48821626,0.026256693
0.0807,0.724372188,0.617561296,0.82814397,23.44088136,0.026345481
0.081,0.724257972,0.618396613,0.829299972,23.39345378,0.026434601
0.0813,0.7241438,0.619228852,0.830451899,23.34643445,0.026523487
0.0816,0.724029672,0.620058029,0.831599773,23.29965682,0.026612325
0.0819,0.723915589,0.620884159,0.832743613,23.25296063,0.026701295
0.0822,0.72380155,0.621707259,0.833883441,23.20681812,0.026789854
0.0825,0.723687556,0.622527344,0.835019275,23.16053038,0.026878804
0.0828,0.723573606,0.623344429,0.836151136,23.11492991,0.026967178
0.0831,0.723459701,0.624158529,0.837279044,23.06924484,0.027055872
0.0834,0.72334584,0.624969659,0.838403018,23.02398393,0.027144288
0.0837,0.723232024,0.625777834,0.839523077,22.97888606,0.027232732
0.084,0.723118253,0.62658307,0.840639241,22.93397144,0.027321176
0.0843,0.723004526,0.62738538,0.841751528,22.88944502,0.027409375
0.0846,0.722890844,0.62818478,0.842859958,22.84488323,0.027497833
0.0849,0.722777207,0.628981283,0.843964549,22.80091224,0.027585795
0.0852,0.722663615,0.629774904,0.845065319,22.75672011,0.027674239
0.0855,0.722550067,0.630565657,0.846162288,22.71327779,0.027761984
0.0858,0.722436565,0.631353557,0.847255472,22.66960786,0.02785022
0.0861,0.722323107,0.632138617,0.848344892,22.6265313,0.027937938
0.0864,0.722209694,0.632920851,0.849430563,22.58336715,0.028025974
0.0867,0.722096326,0.633700273,0.850512505,22.54066196,0.02811365
0.087,0.721983003,0.634476897,0.851590735,22.49798696,0.028201496
0.0873,0.721869724,0.635250736,0.852665269,22.45565857,0.028289116
0.0876,0.721756491,0.636021803,0.853736127,22.4134559,0.028376784
0.0879,0.721643303,0.636790111,0.854803324,22.37150948,0.028464334
0.0882,0.72153016,0.637555675,0.855866879,22.32976218,0.028551835
0.0885,0.721417062,0.638318507,0.856926807,22.28820271,0.028639299
0.0888,0.721304009,0.63907862,0.857983126,22.24689363,0.028726645
0.0891,0.721191001,0.639836027,0.859035853,22.20572584,0.028814011
