phi0,omega,M,Q,R_eff,C_eff
0,0.942809042,0,0,,0
0.0006,0.942549394,0.047417366,0.050498321,204.6638033,0.000231684
0.0009,0.942502826,0.063755648,0.067668112,174.0055381,0.0003664
0.0012,0.942355902,0.073605782,0.078132633,151.2233741,0.000486736
0.0015,0.94220438,0.082230209,0.087347375,134.9604549,0.000609291
0.0018,0.942049855,0.090065783,0.095572025,123.6195535,0.000728572
0.0021,0.941892772,0.097226888,0.103171928,114.4429102,0.000849567
0.0024,0.941733776,0.103878507,0.110237445,107.0303088,0.000970552
0.0027,0.941573232,0.110114712,0.116863012,100.8888051,0.001091446
0.003,0.941411409,0.116002486,0.123119607,95.69211543,0.001212247
0.0033,0.941248501,0.121592553,0.129061022,91.22041767,0.001332953
0.0036,0.941084666,0.126924258,0.13472895,87.31926107,0.001453565
0.0039,0.940920026,0.13202893,0.140156593,83.87664077,0.001574085
0.0042,0.940754681,0.136931985,0.145370886,80.80923451,0.001694509
0.0045,0.940588715,0.141654382,0.150394038,78.0533421,0.001814841
0.0048,0.940422195,0.146213649,0.155244623,75.55953461,0.001935079
0.0054,0.940087722,0.154899986,0.164488683,71.20946499,0.002175272
0.0057,0.939919862,0.159050701,0.168907208,69.29616591,0.002295231
0.006,0.939751638,0.163086302,0.173204034,67.52795894,0.002415093
0.0063,0.939583083,0.167015154,0.17738802,65.88724121,0.002534863
0.0066,0.939414226,0.170844638,0.181466984,64.35940573,0.00265454
0.0069,0.939245093,0.174581312,0.185447871,62.93196546,0.002774128
0.0072,0.939075707,0.178231032,0.18933688,61.59459033,0.002893615
0.0075,0.938906089,0.18179905,0.193139575,60.33796012,0.003013013
0.0078,0.938736258,0.185290103,0.196860971,59.15426598,0.00313232
0.0081,0.93856623,0.18870848,0.200505607,58.03680102,0.003251531
0.0084,0.93839602,0.192058077,0.204077608,56.97959338,0.003370647
0.0087,0.938225644,0.195342447,0.207580737,55.97724621,0.003489676
0.009,0.938055113,0.198564844,0.211018435,55.02534063,0.003608607
0.0093,0.937884439,0.201728252,0.214393862,54.11964487,0.00372745
0.0096,0.937713633,0.204835419,0.217709926,53.25657831,0.003846199
0.0099,0.937542706,0.207888881,0.22096931,52.43299353,0.003964849
0.0102,0.937371666,0.210890986,0.224174498,51.64576945,0.004083413
0.0105,0.937200522,0.213843911,0.227327794,50.89241962,0.004201881
0.0108,0.937029282,0.21674968,0.230431339,50.17044466,0.004320266
0.0111,0.936857953,0.219610178,0.233487128,49.4778497,0.004438555
0.0114,0.936686542,0.222427166,0.236497022,48.81278045,0.00455674
0.0117,0.936515057,0.22520229,0.239462762,48.17321586,0.004674844
0.012,0.936343502,0.227937092,0.24238598,47.55774771,0.004792849
0.0123,0.936171884,0.230633019,0.245268205,46.9647603,0.004910768
0.0126,0.936000208,0.233291432,0.248110877,46.3929017,0.005028602
0.0129,0.935828478,0.235913612,0.25091535,45.84119822,0.005146323
0.0132,0.935656701,0.238500766,0.253682901,45.30821003,0.005263964
0.0135,0.93548488,0.241054035,0.256414734,44.79298702,0.005381513
0.0138,0.935313019,0.243574497,0.259111988,44.29456728,0.00549897
0.0141,0.935141122,0.24606317,0.261775743,43.81192073,0.005616352
0.0144,0.934969194,0.248521023,0.26440702,43.34460454,0.005733609
0.0147,0.934797238,0.250948973,0.267006789,42.89140516,0.005850799
0.015,0.934625257,0.253347891,0.269575969,42.45178068,0.005967898
0.0153,0.934453255,0.255718605,0.272115436,42.0251385,0.006084896
0.0156,0.934281234,0.258061905,0.274626025,41.61084109,0.006201795
0.0159,0.934109198,0.260378541,0.277108527,41.208212,0.006318608
0.0162,0.933937149,0.26266923,0.279563701,40.81657363,0.006435357
0.0165,0.933765091,0.264934657,0.281992268,40.43588998,0.006551968
0.0168,0.933593025,0.267175474,0.28439492,40.0652,0.006668517
0.0171,0.933420954,0.269392307,0.286772315,39.704175,0.006784987
0.0174,0.933248881,0.271585754,0.289125085,39.35256158,0.006901349
0.0177,0.933076807,0.273756387,0.291453835,39.0098602,0.00701762
0.018,0.932904736,0.275904755,0.293759144,38.67570822,0.0071338
0.0183,0.932732668,0.278031385,0.296041568,38.34984234,0.00724987
0.0186,0.932560606,0.280136782,0.298301641,38.03178119,0.00736586
0.0189,0.932388552,0.282221431,0.300539874,37.72109638,0.007481793
0.0192,0.932216508,0.284285799,0.30275676,37.41791417,0.007597585
0.0195,0.932044475,0.286330334,0.304952772,37.12145664,0.007713338
0.0198,0.931872455,0.288355469,0.307128366,36.83196971,0.007828945
0.0201,0.93170045,0.290361619,0.309283981,36.54875942,0.0079445
0.0204,0.931528461,0.292349184,0.311420039,36.2716853,0.008059984
0.0207,0.931356489,0.294318551,0.313536947,36.00081237,0.008175331
0.021,0.931184537,0.296270091,0.315635098,35.73568491,0.008290595
0.0213,0.931012606,0.298204166,0.317714871,35.47609957,0.008405777
0.0216,0.930840697,0.300121121,0.319776632,35.2218711,0.008520874
0.0219,0.930668811,0.302021291,0.321820735,34.97280523,0.00863589
0.0222,0.930496949,0.303905002,0.323847522,34.72873735,0.008750822
0.0225,0.930325113,0.305772566,0.325857322,34.48972038,0.008865615
0.0228,0.930153304,0.307624286,0.327850456,34.25532911,0.008980334
0.0231,0.929981523,0.309460456,0.329827232,34.02534,0.009095
0.0234,0.929809772,0.31128136,0.33178795,33.79983395,0.009209553
0.0237,0.92963805,0.313087273,0.3337329,33.57864908,0.009323999
0.024,0.92946636,0.314878462,0.335662363,33.36137998,0.009438412
0.0243,0.929294702,0.316655186,0.337576611,33.14838712,0.009552657
0.0246,0.929123078,0.318417694,0.33947591,32.93903137,0.009666881
0.0249,0.928951487,0.320166232,0.341360515,32.73357625,0.009780973
0.0252,0.928779932,0.321901034,0.343230674,32.53176482,0.009894976
0.0255,0.928608413,0.32362233,0.34508663,32.3333079,0.010008946
0.0258,0.92843693,0.325330344,0.346928618,32.13848498,0.010122765
0.0261,0.928265486,0.32702529,0.348756864,31.94701668,0.010236489
0.0264,0.928094079,0.328707381,0.350571591,31.75870482,0.010350151
0.0267,0.927922712,0.33037682,0.352373015,31.57349496,0.010463739
0.027,0.927751385,0.332033807,0.354161344,31.39132889,0.010577246
0.0273,0.927580099,0.333678534,0.355936782,31.21214484,0.010690663
0.0276,0.927408854,0.335311191,0.357699528,31.03595532,0.010803959
0.0279,0.927237652,0.336931962,0.359449775,30.8625769,0.010917169
0.0282,0.927066492,0.338541023,0.361187711,30.6919183,0.011030299
0.0285,0.926895376,0.340138551,0.362913519,30.52390594,0.01114335
0.0288,0.926724304,0.341724714,0.364627377,30.3585659,0.011256286
0.0291,0.926553277,0.343299678,0.36632946,30.19580007,0.01136912
0.0294,0.926382296,0.344863603,0.368019937,30.03549971,0.011481867
0.0297,0.92621136,0.346416648,0.369698973,29.87758147,0.011594535
0.03,0.926040471,0.347958965,0.37136673,29.7219603,0.011707134
0.0303,0.92586963,0.349490704,0.373023365,29.56854962,0.011819677
0.0306,0.925698836,0.351012011,0.374669031,29.41741106,0.011932118
0.0309,0.92552809,0.352523029,0.376303879,29.26865161,0.012044389
0.0312,0.925357394,0.354023896,0.377928055,29.12188407,0.012156628
0.0315,0.925186746,0.355514749,0.379541701,28.97701655,0.012268853
0.0318,0.925016149,0.356995721,0.381144957,28.83449052,0.012380858
0.0321,0.924845601,0.358466941,0.38273796,28.69383094,0.012492823
0.0324,0.924675105,0.359928537,0.384320844,28.55487702,0.012604801
0.0327,0.92450466,0.361380631,0.385893737,28.41823294,0.012716506
0.033,0.924334267,0.362823346,0.387456768,28.28310609,0.012828271
0.0333,0.924163925,0.3642568,0.389010062,28.14998029,0.01293986
0.0336,0.923993637,0.365681109,0.39055374,28.01851204,0.013051411
0.0339,0.923823401,0.367096387,0.392087921,27.88880781,0.013162857
0.0342,0.923653219,0.368502744,0.393612722,27.76077929,0.013274222
0.0345,0.923483091,0.36990029,0.395128258,27.63442948,0.013385487
0.0348,0.923313017,0.371289131,0.39663464,27.50961349,0.013496705
0.0351,0.923142998,0.37266937,0.398131977,27.38654064,0.013607756
0.0354,0.922973033,0.374041111,0.399620377,27.2647032,0.013718877
0.0357,0.922803124,0.375404452,0.401099944,27.14482029,0.01382969
0.036,0.922633271,0.376759493,0.402570782,27.0261089,0.013940575
0.0363,0.922463474,0.378106329,0.404032991,26.90893347,0.014051331
0.0366,0.922293734,0.379445053,0.40548667,26.79330006,0.014161938
0.0369,0.92212405,0.38077576,0.406931916,26.67882288,0.014272585
0.0372,0.921954424,0.382098537,0.408368824,26.56587067,0.014383061
0.0375,0.921784855,0.383413476,0.409797486,26.454342,0.014493404
0.0378,0.921615343,0.384720661,0.411217994,26.34394633,0.01460376
0.0381,0.92144589,0.386020179,0.412630437,26.23476052,0.014714073
0.0384,0.921276495,0.387312113,0.414034903,26.12716842,0.014824114
0.0387,0.921107159,0.388596546,0.415431478,26.02067875,0.014934143
0.039,0.920937882,0.389873558,0.416820248,25.91528738,0.015044153
0.0393,0.920768664,0.391143227,0.418201293,25.81098955,0.015154135
0.0396,0.920599506,0.392405632,0.419574697,25.70816704,0.015263851
0.0399,0.920430408,0.393660849,0.420940538,25.60644711,0.015373505
0.0402,0.92026137,0.394908953,0.422298896,25.50577957,0.015483116
0.0405,0.920092392,0.396150017,0.423649847,25.40615718,0.015592678
0.0408,0.919923475,0.397384113,0.424993467,25.30757216,0.015702182
0.0411,0.919754618,0.398611312,0.426329831,25.21001618,0.015811625
0.0414,0.919585823,0.399831684,0.427659011,25.11372704,0.015920842
0.0417,0.91941709,0.401045297,0.428981079,25.01845065,0.016029981
0.042,0.919248418,0.40225222,0.430296105,24.92415163,0.016139054
0.0423,0.919079807,0.403452516,0.431604159,24.83081957,0.016248055
0.0426,0.918911259,0.404646253,0.43290531,24.73844356,0.016356981
0.0429,0.918742774,0.405833493,0.434199623,24.64701226,0.016465829
0.0432,0.918574351,0.4070143,0.435487164,24.55651389,0.016574596
0.0435,0.91840599,0.408188734,0.436767999,24.46693623,0.016683279
0.0438,0.918237693,0.409356858,0.438042191,24.37826665,0.016791877
0.0441,0.918069459,0.410518731,0.439309803,24.29049212,0.016900388
0.0444,0.917901288,0.411674411,0.440570896,24.20359922,0.01700881
0.0447,0.917733181,0.412823956,0.44182553,24.11757416,0.017117143
0.045,0.917565138,0.413967424,0.443073766,24.0324028,0.017225386
0.0453,0.917397159,0.41510487,0.444315661,23.94807065,0.017333541
0.0456,0.917229244,0.416236349,0.445551274,23.86456289,0.017441608
0.0459,0.917061393,0.417361917,0.446780662,23.78186443,0.017549588
0.0462,0.916893607,0.418481625,0.448003879,23.69995983,0.017657483
0.0465,0.916725886,0.419595527,0.449220982,23.61883343,0.017765294
0.0468,0.91655823,0.420703674,0.450432024,23.53846928,0.017873026
0.0471,0.916390639,0.421806118,0.45163706,23.4588512,0.017980681
0.0474,0.916223113,0.422902908,0.45283614,23.37996279,0.018088263
0.0477,0.916055653,0.423994094,0.454029317,23.30178743,0.018195776
0.048,0.915888258,0.425079726,0.455216642,23.22430833,0.018303224
0.0483,0.915720929,0.426159849,0.456398165,23.14750852,0.018410614
0.0486,0.915553666,0.427234513,0.457573936,23.07153933,0.018517816
0.0489,0.91538647,0.428303763,0.458744003,22.99633629,0.01862487
0.0492,0.915219339,0.429367646,0.459908414,22.92178023,0.018731863
0.0495,0.915052275,0.430426207,0.461067216,22.84785332,0.018838803
0.0498,0.914885278,0.431479489,0.462220456,22.77453761,0.018945697
0.0501,0.914718347,0.432527538,0.463368181,22.70181507,0.019052553
0.0504,0.914551484,0.433570396,0.464510434,22.62966763,0.01915938
0.0507,0.914384687,0.434608106,0.465647262,22.55828318,0.01926601
0.051,0.914217957,0.435640711,0.466778707,22.48765573,0.019372438
0.0513,0.914051295,0.436668251,0.467904813,22.41756628,0.019478843
0.0516,0.9138847,0.437690768,0.469025623,22.34799623,0.019585235
0.0519,0.913718173,0.438708302,0.470141179,22.27892701,0.019691626
0.0522,0.913551714,0.439720893,0.471251523,22.21041035,0.019797964
0.0525,0.913385322,0.440728579,0.472356695,22.14280318,0.01990392
0.0528,0.913218999,0.441731401,0.473456737,22.07565703,0.020009887
0.0531,0.913052743,0.442729396,0.474551687,22.00895306,0.020115877
0.0534,0.912886556,0.443722601,0.475641586,21.94267249,0.020221903
0.0537,0.912720437,0.444711054,0.476726472,21.87714756,0.020327653
0.054,0.912554387,0.445694792,0.477806383,21.81226038,0.020433224
0.0543,0.912388405,0.44667385,0.478881358,21.74775482,0.020538849
0.0546,0.912222492,0.447648265,0.479951433,21.68361209,0.020644543
0.0549,0.912056647,0.448618072,0.481016646,21.62017612,0.020749973
0.0552,0.911890872,0.449583305,0.482077032,21.55737334,0.020855199
0.0555,0.911725166,0.450543999,0.483132628,21.49489036,0.020960516
0.0558,0.911559528,0.451500189,0.484183469,21.43270856,0.021065942
0.0561,0.91139396,0.452451906,0.48522959,21.37142562,0.021170881
0.0564,0.911228462,0.453399185,0.486271026,21.31052497,0.021275834
0.0567,0.911063033,0.454342059,0.48730781,21.24988165,0.021380922
0.057,0.910897673,0.455280558,0.488339976,21.1897979,0.021485838
0.0573,0.910732384,0.456214716,0.489367557,21.13039852,0.021590445
0.0576,0.910567164,0.457144563,0.490390587,21.07121199,0.021695219
0.0579,0.910402013,0.458070132,0.491409097,21.01236568,0.021800027
0.0582,0.910236933,0.458991451,0.49242312,20.95438327,0.021904317
0.0585,0.910071923,0.459908552,0.493432687,20.89656883,0.022008807
0.0588,0.909906983,0.460821465,0.49443783,20.83899448,0.022113421
0.0591,0.909742113,0.46173022,0.495438579,20.78234197,0.02221743
0.0594,0.909577314,0.462634844,0.496434964,20.72581233,0.022321675
0.0597,0.909412585,0.463535368,0.497427016,20.66954065,0.022426012
0.06,0.909247927,0.46443182,0.498414765,20.61412861,0.022529782
0.0603,0.909083339,0.465324228,0.49939824,20.55879436,0.022633829
0.0606,0.908918822,0.46621262,0.50037747,20.50385217,0.022737806
0.0609,0.908754375,0.467097023,0.501352483,20.44958929,0.022841389
0.0612,0.90859,0.467977465,0.502323309,20.39535932,0.022945292
0.0615,0.908425695,0.468853973,0.503289975,20.34176957,0.023048829
0.0618,0.908261462,0.469726573,0.504252508,20.2885631,0.023152284
0.0621,0.908097299,0.470595291,0.505210937,20.23534508,0.023256104
0.0624,0.907933208,0.471460154,0.506165288,20.18312683,0.023359124
0.0627,0.907769188,0.472321187,0.507115588,20.13088303,0.023462517
0.063,0.907605239,0.473178416,0.508061863,20.07904377,0.023565784
0.0633,0.907441362,0.474031865,0.509004141,20.02775229,0.02366875
0.0636,0.907277556,0.47488156,0.509942445,19.97637691,0.023772157
0.0639,0.907113822,0.475727526,0.510876803,19.92594415,0.02387478
0.0642,0.906950159,0.476569785,0.51180724,19.87546965,0.023977787
0.0645,0.906786568,0.477408363,0.51273378,19.82544878,0.024080583
0.0648,0.906623049,0.478243284,0.513656448,19.77585148,0.024183196
0.0651,0.906459602,0.47907457,0.514575268,19.72625524,0.024286139
0.0654,0.906296226,0.479902245,0.515490266,19.67751074,0.024388362
0.0657,0.906132923,0.480726332,0.516401465,19.62858232,0.024491139
0.066,0.905969691,0.481546854,0.517308888,19.58043474,0.024593267
0.0663,0.905806532,0.482363833,0.518212559,19.5323054,0.024695694
0.0666,0.905643445,0.483177292,0.519112501,19.48460976,0.024797894
0.0669,0.90548043,0.483987253,0.520008737,19.43725375,0.024899981
0.0672,0.905317487,0.484793737,0.52090129,19.39002107,0.025002229
0.0675,0.905154616,0.485596766,0.521790182,19.34341209,0.025103987
0.0678,0.904991818,0.486396361,0.522675436,19.29665292,0.025206255
0.0681,0.904829093,0.487192544,0.523557073,19.25076415,0.025307699
0.0684,0.90466644,0.487985335,0.524435115,19.20456591,0.02540986
0.0687,0.904503859,0.488774755,0.525309584,19.15929279,0.025511106
0.069,0.904341352,0.489560825,0.526180501,19.11375949,0.025613005
0.0693,0.904178916,0.490343565,0.527047887,19.06897996,0.0257142
0.0696,0.904016554,0.491122995,0.527911763,19.02408401,0.025815855
0.0699,0.903854264,0.491899134,0.52877215,18.97980675,0.025916973
0.0702,0.903692048,0.492672004,0.529629068,18.93552019,0.026018403
0.0705,0.903529904,0.493441622,0.530482537,18.89175343,0.026119419
0.0708,0.903367833,0.494208008,0.531332577,18.84804799,0.026220647
0.0711,0.903205835,0.494971182,0.532179209,18.80479948,0.026321535
0.0714,0.90304391,0.495731162,0.533022452,18.76164662,0.026422583
0.0717,0.902882058,0.496487967,0.533862325,18.71892365,0.026523318
0.072,0.90272028,0.497241615,0.534698847,18.67629456,0.026624211
0.0723,0.902558574,0.497992126,0.535532039,18.63410395,0.026724769
0.0726,0.902396942,0.498739516,0.536361917,18.59196964,0.026825534
0.0729,0.902235383,0.499483805,0.537188503,18.55031773,0.02692589
0.0732,0.902073897,0.500225009,0.538011813,18.50864907,0.027026554
0.0735,0.901912485,0.500963147,0.538831866,18.46754169,0.027126683
0.0738,0.901751146,0.501698236,0.53964868,18.42630942,0.027227277
0.0741,0.901589881,0.502430293,0.540462274,18.38575196,0.027327155
0.0744,0.901428689,0.503159336,0.541272664,18.34492675,0.02742771
0.0747,0.901267571,0.503885381,0.54207987,18.30492409,0.027527313
0.075,0.901106527,0.504608445,0.542883908,18.26450522,0.027627819
0.0753,0.900945556,0.505328546,0.543684795,18.22503314,0.027727168
0.0756,0.900784658,0.506045699,0.544482549,18.18518288,0.027827364
0.0759,0.900623835,0.506759921,0.545277187,18.1460537,0.027926729
0.0762,0.900463085,0.507471228,0.546068726,18.10677595,0.028026592
0.0765,0.900302409,0.508179636,0.546857181,18.0679599,0.028126011
0.0768,0.900141807,0.508885162,0.547642571,18.02925809,0.028225519
0.0771,0.899981278,0.50958782,0.548424911,17.99072554,0.028325029
0.0774,0.899820824,0.510287627,0.549204217,17.95260261,0.028424159
0.0777,0.899660443,0.510984598,0.549980506,17.91432404,0.0285238
0.078,0.899500137,0.511678748,0.550753793,17.87678246,0.02862253
0.0783,0.899339904,0.512370093,0.551524095,17.83886546,0.028722123
0.0786,0.899179746,0.513058648,0.552291426,17.80177029,0.028820653
0.0789,0.899019662,0.513744427,0.553055803,17.76444603,0.028919811
0.0792,0.898859652,0.514427446,0.553817241,17.72753853,0.029018549
0.0795,0.898699716,0.515107719,0.554575754,17.69080847,0.029117252
0.0798,0.898539854,0.515785261,0.555331359,17.65405937,0.029216241
0.0801,0.898380066,0.516460086,0.556084071,17.61792451,0.029314468
0.0804,0.898220353,0.517132208,0.556833903,17.58143682,0.029413535
0.0807,0.898060714,0.517801642,0.55758087,17.54576576,0.029511487
0.081,0.897901149,0.518468402,0.558324988,17.50988316,0.029610044
0.0813,0.897741659,0.519132501,0.559066271,17.47430368,0.029708337
0.0816,0.897582243,0.519793954,0.559804733,17.43902619,0.029806364
0.0819,0.897422901,0.520452774,0.560540388,17.40350969,0.029905047
0.0822,0.897263634,0.521108975,0.561273251,17.36883685,0.030002526
0.0825,0.897104441,0.52176257,0.562003335,17.33383404,0.030100817
0.0828,0.896945323,0.522413572,0.562730654,17.2992861,0.030198563
0.0831,0.89678628,0.523061996,0.563455222,17.2648963,0.030296272
0.0834,0.896627311,0.523707853,0.564177053,17.2303449,0.030394508
0.0837,0.896468416,0.524351157,0.564896159,17.19656672,0.030491619
0.084,0.896309596,0.524991922,0.565612555,17.16247226,0.030589528
0.0843,0.896150851,0.525630159,0.566326254,17.12881588,0.030686894
0.0846,0.89599218,0.526265881,0.567037269,17.09534036,0.030784171
0.0849,0.895833585,0.526899101,0.567745613,17.06161451,0.030882136
0.0852,0.895675063,0.527529832,0.568451298,17.02875558,0.030978766
0.0855,0.895516617,0.528158086,0.569154339,16.99559421,0.031076177
0.0858,0.895358245,0.528783875,0.569854747,16.96268839,0.031173353
0.0861,0.895199949,0.529407211,0.570552535,16.93014991,0.031270084
0.0864,0.895041726,0.530028107,0.571247716,16.8973138,0.031367596
0.0867,0.894883579,0.530646575,0.571940302,16.86519061,0.031464013
0.087,0.894725507,0.531262625,0.572630305,16.83298318,0.031560812
0.0873,0.894567509,0.531876271,0.573317738,16.80068685,0.031658008
0.0876,0.894409587,0.532487524,0.574002613,16.7691043,0.031754083
0.0879,0.894251739,0.533096395,0.574684941,16.73723814,0.031850918
0.0882,0.894093967,0.533702897,0.575364736,16.70564763,0.031947453
0.0885,0.893936269,0.534307039,0.576042008,16.67441111,0.032043533
0.0888,0.893778646,0.534908835,0.576716769,16.64289603,0.03214037
0.0891,0.893621098,0.535508295,0.577389032,16.61197241,0.032236286
0.0894,0.893463626,0.53610543,0.578058807,16.58109121,0.032332337
