phi0,omega,M,Q,R_eff,C_eff
0,1,0,0,,0
0.001,0.99958,0.06471,0.06472,152.23964,0.00043
0.002,0.999,0.0911,0.09114,107.63511,0.00085
0.003,0.99841,0.11089,0.11096,87.80046,0.00126
0.004,0.9978,0.12727,0.12738,75.96581,0.00168
0.005,0.99719,0.14143,0.14158,67.88223,0.00208
0.006,0.99657,0.15399,0.15419,61.90992,0.00249
0.007,0.99596,0.16533,0.16558,57.26455,0.00289
0.008,0.99534,0.17569,0.17599,53.51682,0.00328
0.009,0.99473,0.18523,0.1856,50.40994,0.00367
0.01,0.99412,0.19409,0.19451,47.77972,0.00406
0.011,0.99351,0.20236,0.20284,45.51487,0.00445
0.012,0.9929,0.21012,0.21066,43.5381,0.00483
0.013,0.99229,0.21742,0.21801,41.79291,0.0052
0.014,0.99169,0.22431,0.22497,40.23698,0.00557
0.015,0.99109,0.23083,0.23155,38.83815,0.00594
0.016,0.99049,0.23702,0.2378,37.57198,0.00631
0.017,0.98989,0.2429,0.24375,36.41865,0.00667
0.018,0.9893,0.24851,0.24942,35.36184,0.00703
0.019,0.98871,0.25385,0.25483,34.38913,0.00738
0.02,0.98813,0.25896,0.26001,33.48961,0.00773
0.021,0.98754,0.26385,0.26496,32.65471,0.00808
0.022,0.98696,0.26853,0.2697,31.87704,0.00842
0.023,0.98638,0.27301,0.27426,31.15017,0.00876
0.024,0.98581,0.27732,0.27863,30.46866,0.0091
0.025,0.98523,0.28145,0.28283,29.82836,0.00944
0.026,0.98467,0.28542,0.28686,29.22474,0.00977
0.027,0.9841,0.28925,0.29075,28.65515,0.01009
0.028,0.98353,0.29292,0.29449,28.11576,0.01042
0.029,0.98297,0.29646,0.2981,27.60435,0.01074
0.03,0.98242,0.29987,0.30157,27.11836,0.01106
0.031,0.98186,0.30316,0.30492,26.65602,0.01137
0.032,0.98131,0.30633,0.30816,26.21507,0.01169
0.033,0.98076,0.30939,0.31128,25.79426,0.01199
0.034,0.98021,0.31234,0.3143,25.39217,0.0123
0.035,0.97967,0.31519,0.31721,25.00724,0.0126
0.036,0.97913,0.31794,0.32002,24.63782,0.0129
0.037,0.97859,0.3206,0.32274,24.28406,0.0132
0.038,0.97806,0.32317,0.32537,23.94387,0.0135
0.039,0.97752,0.32566,0.32791,23.61663,0.01379
0.04,0.977,0.32806,0.33037,23.3017,0.01408
0.041,0.97647,0.33038,0.33275,22.99835,0.01437
0.042,0.97594,0.33262,0.33506,22.70578,0.01465
0.043,0.97542,0.33479,0.33728,22.42316,0.01493
0.044,0.9749,0.33689,0.33944,22.15025,0.01521
0.045,0.97439,0.33893,0.34153,21.88658,0.01549
0.046,0.97387,0.34089,0.34355,21.63121,0.01576
0.047,0.97336,0.3428,0.34551,21.38402,0.01603
0.048,0.97285,0.34464,0.34741,21.14478,0.0163
0.049,0.97235,0.34642,0.34924,20.91258,0.01657
0.05,0.97184,0.34815,0.35102,20.68721,0.01683
0.051,0.97134,0.34982,0.35274,20.46845,0.01709
0.052,0.97084,0.35144,0.35441,20.25605,0.01735
0.053,0.97035,0.353,0.35603,20.04973,0.01761
0.054,0.96985,0.35452,0.35759,19.8492,0.01786
0.055,0.96936,0.35599,0.35911,19.65414,0.01811
0.056,0.96887,0.35741,0.36057,19.46425,0.01836
0.057,0.96839,0.35878,0.36199,19.27917,0.01861
0.058,0.9679,0.36011,0.36337,19.09857,0.01886
0.059,0.96742,0.3614,0.3647,18.92317,0.0191
0.06,0.96694,0.36264,0.36599,18.75193,0.01934
0.061,0.96646,0.36385,0.36724,18.58436,0.01958
0.062,0.96599,0.36502,0.36845,18.42173,0.01981
0.063,0.96551,0.36615,0.36962,18.2621,0.02005
0.064,0.96504,0.36724,0.37076,18.10697,0.02028
0.065,0.96457,0.3683,0.37185,17.95452,0.02051
0.066,0.96411,0.36932,0.37291,17.80652,0.02074
0.067,0.96364,0.37031,0.37394,17.66111,0.02097
0.068,0.96318,0.37126,0.37493,17.51911,0.02119
0.069,0.96272,0.37218,0.37589,17.3804,0.02141
0.07,0.96226,0.37307,0.37682,17.24422,0.02163
0.071,0.96181,0.37394,0.37772,17.11096,0.02185
0.072,0.96135,0.37477,0.37859,16.98094,0.02207
0.073,0.9609,0.37557,0.37942,16.85332,0.02228
0.074,0.96045,0.37635,0.38023,16.72808,0.0225
0.075,0.96,0.3771,0.38101,16.6052,0.02271
0.076,0.95955,0.37782,0.38177,16.48505,0.02292
0.077,0.95911,0.37851,0.38249,16.36741,0.02313
0.078,0.95867,0.37918,0.38319,16.25193,0.02333
0.079,0.95823,0.37983,0.38387,16.13858,0.02354
0.08,0.95779,0.38045,0.38452,16.02731,0.02374
0.081,0.95735,0.38105,0.38515,15.91808,0.02394
0.082,0.95692,0.38163,0.38575,15.81083,0.02414
0.083,0.95648,0.38219,0.38633,15.70553,0.02433
0.084,0.95605,0.38272,0.38689,15.6021,0.02453
0.085,0.95562,0.38323,0.38743,15.50049,0.02472
0.086,0.95519,0.38372,0.38794,15.40065,0.02492
0.087,0.95477,0.38419,0.38844,15.30251,0.02511
0.088,0.95434,0.38465,0.38891,15.20601,0.0253
0.089,0.95392,0.38508,0.38937,15.11109,0.02548
0.09,0.9535,0.38549,0.3898,15.01767,0.02567
0.091,0.95308,0.38589,0.39022,14.92569,0.02585
0.092,0.95266,0.38627,0.39062,14.83565,0.02604
0.093,0.95225,0.38663,0.391,14.74712,0.02622
0.094,0.95183,0.38698,0.39136,14.65989,0.0264
0.095,0.95142,0.3873,0.3917,14.5739,0.02658
0.096,0.95101,0.38762,0.39203,14.48906,0.02675
0.097,0.9506,0.38791,0.39235,14.40532,0.02693
0.098,0.95019,0.38819,0.39264,14.32366,0.0271
0.099,0.94978,0.38846,0.39292,14.24306,0.02727
0.1,0.94938,0.38871,0.39319,14.16339,0.02744
0.101,0.94898,0.38895,0.39344,14.08458,0.02762
0.102,0.94857,0.38917,0.39367,14.00749,0.02778
0.103,0.94817,0.38938,0.3939,13.93162,0.02795
0.104,0.94777,0.38958,0.3941,13.85644,0.02812
0.105,0.94738,0.38976,0.3943,13.78197,0.02828
0.106,0.94698,0.38993,0.39448,13.70959,0.02844
0.107,0.94659,0.39009,0.39465,13.63772,0.0286
0.108,0.94619,0.39024,0.3948,13.56629,0.02877
0.109,0.9458,0.39037,0.39494,13.4968,0.02892
0.11,0.94541,0.39049,0.39507,13.4279,0.02908
0.111,0.94502,0.3906,0.39519,13.35928,0.02924
0.112,0.94463,0.3907,0.3953,13.29269,0.02939
0.113,0.94425,0.39079,0.39539,13.22642,0.02955
0.114,0.94386,0.39087,0.39547,13.16062,0.0297
0.115,0.94348,0.39094,0.39555,13.09663,0.02985
0.116,0.94309,0.391,0.39561,13.03263,0.03
0.117,0.94271,0.39105,0.39566,12.9699,0.03015
0.118,0.94233,0.39108,0.3957,12.90797,0.0303
0.119,0.94195,0.39111,0.39573,12.84618,0.03045
0.12,0.94158,0.39113,0.39575,12.78624,0.03059
0.121,0.9412,0.39114,0.39576,12.72601,0.03074
0.122,0.94083,0.39115,0.39576,12.66738,0.03088
0.123,0.94045,0.39114,0.39576,12.60892,0.03102
0.124,0.94008,0.39112,0.39574,12.55133,0.03116
0.125,0.93971,0.3911,0.39571,12.49455,0.0313
0.126,0.93934,0.39107,0.39568,12.43804,0.03144
0.127,0.93897,0.39103,0.39564,12.38282,0.03158
0.128,0.9386,0.39098,0.39559,12.32744,0.03172
0.129,0.93823,0.39092,0.39553,12.27367,0.03185
0.13,0.93787,0.39086,0.39546,12.21944,0.03199
0.131,0.9375,0.39079,0.39539,12.16702,0.03212
0.132,0.93714,0.39071,0.3953,12.11396,0.03225
0.133,0.93678,0.39063,0.39521,12.06277,0.03238
0.134,0.93642,0.39054,0.39512,12.01092,0.03252
0.135,0.93606,0.39044,0.39501,11.96084,0.03264
0.136,0.9357,0.39034,0.3949,11.91022,0.03277
0.137,0.93534,0.39023,0.39478,11.86114,0.0329
0.138,0.93498,0.39011,0.39466,11.81176,0.03303
0.139,0.93462,0.38999,0.39452,11.76356,0.03315
0.14,0.93427,0.38986,0.39439,11.71545,0.03328
0.141,0.93392,0.38972,0.39424,11.66801,0.0334
0.142,0.93356,0.38958,0.39409,11.62118,0.03352
0.143,0.93321,0.38944,0.39393,11.57439,0.03365
0.144,0.93286,0.38928,0.39377,11.52883,0.03377
0.145,0.93251,0.38913,0.3936,11.48257,0.03389
0.146,0.93216,0.38896,0.39343,11.43831,0.03401
0.147,0.93181,0.3888,0.39325,11.39333,0.03412
0.148,0.93146,0.38862,0.39306,11.34949,0.03424
0.149,0.93112,0.38845,0.39287,11.30584,0.03436
0.15,0.93077,0.38826,0.39267,11.26227,0.03447
0.151,0.93043,0.38808,0.39247,11.21994,0.03459
0.152,0.93008,0.38789,0.39227,11.17696,0.0347
0.153,0.92974,0.38769,0.39206,11.13553,0.03482
0.154,0.9294,0.38749,0.39184,11.09389,0.03493
0.155,0.92906,0.38728,0.39162,11.05248,0.03504
0.156,0.92872,0.38707,0.39139,11.01219,0.03515
0.157,0.92838,0.38686,0.39116,10.97129,0.03526
0.158,0.92804,0.38664,0.39093,10.93172,0.03537
0.159,0.9277,0.38642,0.39069,10.89219,0.03548
0.16,0.92736,0.3862,0.39045,10.85237,0.03559
0.161,0.92703,0.38597,0.3902,10.81419,0.03569
0.162,0.92669,0.38574,0.38995,10.77546,0.0358
0.163,0.92636,0.3855,0.38969,10.73718,0.0359
0.164,0.92602,0.38526,0.38943,10.69981,0.03601
0.165,0.92569,0.38502,0.38917,10.66191,0.03611
0.166,0.92536,0.38477,0.3889,10.62503,0.03621
0.167,0.92503,0.38452,0.38863,10.5885,0.03632
0.168,0.9247,0.38427,0.38836,10.55147,0.03642
0.169,0.92437,0.38401,0.38808,10.51581,0.03652
0.17,0.92404,0.38375,0.3878,10.48016,0.03662
0.171,0.92371,0.38349,0.38752,10.44402,0.03672
0.172,0.92338,0.38323,0.38723,10.40942,0.03682
0.173,0.92305,0.38296,0.38694,10.37467,0.03691
0.174,0.92273,0.38269,0.38664,10.33945,0.03701
0.175,0.9224,0.38241,0.38635,10.30576,0.03711
0.176,0.92207,0.38214,0.38605,10.27192,0.0372
0.177,0.92175,0.38186,0.38574,10.23764,0.0373
0.178,0.92143,0.38158,0.38544,10.2047,0.03739
0.179,0.9211,0.38129,0.38513,10.1718,0.03749
0.18,0.92078,0.38101,0.38482,10.13847,0.03758
0.181,0.92046,0.38072,0.3845,10.10611,0.03767
0.182,0.92014,0.38042,0.38419,10.07416,0.03776
0.183,0.91982,0.38013,0.38387,10.0418,0.03785
0.184,0.9195,0.37984,0.38354,10.00986,0.03795
0.185,0.91918,0.37954,0.38322,9.97887,0.03803
0.186,0.91886,0.37924,0.38289,9.94749,0.03812
0.187,0.91854,0.37893,0.38256,9.91583,0.03822
0.188,0.91822,0.37863,0.38223,9.8858,0.0383
0.189,0.91791,0.37832,0.3819,9.85541,0.03839
0.19,0.91759,0.37802,0.38156,9.82465,0.03848
0.191,0.91727,0.37771,0.38122,9.79481,0.03856
0.192,0.91696,0.37739,0.38088,9.76541,0.03865
0.193,0.91664,0.37708,0.38054,9.73566,0.03873
0.194,0.91633,0.37677,0.38019,9.70575,0.03882
0.195,0.91602,0.37645,0.37985,9.67734,0.0389
0.196,0.9157,0.37613,0.3795,9.6486,0.03898
0.197,0.91539,0.37581,0.37915,9.61952,0.03907
0.198,0.91508,0.37549,0.3788,9.59105,0.03915
0.199,0.91477,0.37516,0.37844,9.56332,0.03923
0.2,0.91446,0.37484,0.37809,9.53526,0.03931
0.201,0.91415,0.37451,0.37773,9.50688,0.03939
0.202,0.91384,0.37418,0.37737,9.47967,0.03947
0.203,0.91353,0.37386,0.37701,9.45263,0.03955
0.204,0.91322,0.37352,0.37665,9.4253,0.03963
0.205,0.91291,0.37319,0.37628,9.39765,0.03971
0.206,0.9126,0.37286,0.37592,9.37147,0.03979
0.207,0.9123,0.37253,0.37555,9.34517,0.03986
0.208,0.91199,0.37219,0.37518,9.31857,0.03994
0.209,0.91168,0.37185,0.37481,9.29167,0.04002
0.21,0.91138,0.37152,0.37444,9.26634,0.04009
0.211,0.91107,0.37118,0.37407,9.24078,0.04017
0.212,0.91077,0.37084,0.37369,9.21494,0.04024
0.213,0.91046,0.3705,0.37332,9.18882,0.04032
0.214,0.91016,0.37015,0.37294,9.16413,0.04039
0.215,0.90985,0.36981,0.37256,9.13933,0.04046
0.216,0.90955,0.36947,0.37219,9.11427,0.04054
0.217,0.90925,0.36912,0.37181,9.08894,0.04061
0.218,0.90894,0.36878,0.37142,9.06469,0.04068
0.219,0.90864,0.36843,0.37104,9.04067,0.04075
0.22,0.90834,0.36808,0.37066,9.0164,0.04082
0.221,0.90804,0.36773,0.37028,8.99187,0.0409
0.222,0.90774,0.36738,0.36989,8.96786,0.04097
0.223,0.90744,0.36703,0.3695,8.94463,0.04103
0.224,0.90714,0.36668,0.36912,8.92116,0.0411
0.225,0.90684,0.36633,0.36873,8.89744,0.04117
0.226,0.90654,0.36598,0.36834,8.87349,0.04124
0.227,0.90624,0.36563,0.36795,8.85104,0.04131
0.228,0.90594,0.36527,0.36756,8.82838,0.04138
0.229,0.90564,0.36492,0.36717,8.80549,0.04144
0.23,0.90534,0.36457,0.36678,8.78237,0.04151
0.231,0.90505,0.36421,0.36639,8.75975,0.04158
0.232,0.90475,0.36386,0.36599,8.73789,0.04164
0.233,0.90445,0.3635,0.3656,8.71583,0.04171
0.234,0.90415,0.36314,0.3652,8.69354,0.04177
0.235,0.90386,0.36279,0.36481,8.67104,0.04184
0.236,0.90356,0.36243,0.36441,8.64952,0.0419
0.237,0.90327,0.36207,0.36401,8.62828,0.04196
0.238,0.90297,0.36171,0.36362,8.60683,0.04203
0.239,0.90268,0.36135,0.36322,8.58518,0.04209
0.24,0.90238,0.361,0.36282,8.56332,0.04216
0.241,0.90209,0.36064,0.36242,8.54267,0.04222
0.242,0.90179,0.36028,0.36202,8.52205,0.04228
0.243,0.9015,0.35992,0.36162,8.50125,0.04234
0.244,0.9012,0.35956,0.36122,8.48024,0.0424
0.245,0.90091,0.3592,0.36082,8.45904,0.04246
0.246,0.90062,0.35883,0.36042,8.43902,0.04252
0.247,0.90033,0.35847,0.36002,8.41905,0.04258
0.248,0.90003,0.35811,0.35962,8.39891,0.04264
0.249,0.89974,0.35775,0.35921,8.37857,0.0427
0.25,0.89945,0.35739,0.35881,8.35805,0.04276
0.251,0.89916,0.35703,0.35841,8.33841,0.04282
0.252,0.89887,0.35666,0.358,8.31911,0.04287
0.253,0.89857,0.3563,0.3576,8.29963,0.04293
0.254,0.89828,0.35594,0.3572,8.27998,0.04299
0.255,0.89799,0.35558,0.35679,8.26015,0.04305
0.256,0.8977,0.35521,0.35639,8.24067,0.04311
0.257,0.89741,0.35485,0.35598,8.22204,0.04316
0.258,0.89712,0.35449,0.35558,8.20324,0.04321
0.259,0.89683,0.35413,0.35517,8.18428,0.04327
0.26,0.89654,0.35376,0.35477,8.16515,0.04333
0.261,0.89625,0.3534,0.35436,8.14585,0.04338
0.262,0.89596,0.35304,0.35396,8.12765,0.04344
0.263,0.89567,0.35267,0.35355,8.10954,0.04349
0.264,0.89539,0.35231,0.35315,8.09128,0.04354
0.265,0.8951,0.35195,0.35274,8.07285,0.0436
0.266,0.89481,0.35159,0.35233,8.05427,0.04365
0.267,0.89452,0.35122,0.35193,8.03575,0.04371
0.268,0.89423,0.35086,0.35152,8.01833,0.04376
0.269,0.89394,0.3505,0.35111,8.00077,0.04381
0.27,0.89366,0.35013,0.35071,7.98306,0.04386
0.271,0.89337,0.34977,0.3503,7.9652,0.04391
0.272,0.89308,0.34941,0.34989,7.94719,0.04397
0.273,0.8928,0.34905,0.34949,7.92941,0.04402
0.274,0.89251,0.34868,0.34908,7.91255,0.04407
0.275,0.89222,0.34832,0.34867,7.89555,0.04412
0.276,0.89193,0.34796,0.34827,7.87842,0.04417
0.277,0.89165,0.3476,0.34786,7.86114,0.04422
0.278,0.89136,0.34724,0.34746,7.84371,0.04427
0.279,0.89108,0.34687,0.34705,7.82641,0.04432
0.28,0.89079,0.34651,0.34664,7.81013,0.04437
0.281,0.8905,0.34615,0.34624,7.79371,0.04441
0.282,0.89022,0.34579,0.34583,7.77716,0.04446
0.283,0.88993,0.34543,0.34542,7.76047,0.04451
0.284,0.88965,0.34507,0.34502,7.74365,0.04456
0.285,0.88936,0.34471,0.34461,7.72669,0.04461
0.286,0.88908,0.34435,0.34421,7.71086,0.04466
0.287,0.88879,0.34399,0.3438,7.69503,0.0447
0.288,0.88851,0.34363,0.3434,7.67908,0.04475
0.289,0.88822,0.34327,0.34299,7.663,0.0448
0.29,0.88794,0.34291,0.34259,7.64679,0.04484
0.291,0.88765,0.34255,0.34218,7.63046,0.04489
0.292,0.88737,0.34219,0.34178,7.61455,0.04494
0.293,0.88708,0.34183,0.34137,7.59932,0.04498
0.294,0.8868,0.34148,0.34097,7.58397,0.04503
0.295,0.88652,0.34112,0.34056,7.56851,0.04507
0.296,0.88623,0.34076,0.34016,7.55292,0.04512
0.297,0.88595,0.3404,0.33976,7.53722,0.04516
0.298,0.88566,0.34005,0.33935,7.52139,0.04521
0.299,0.88538,0.33969,0.33895,7.50634,0.04525
0.3,0.8851,0.33933,0.33855,7.49161,0.0453
0.301,0.88481,0.33898,0.33814,7.47676,0.04534
0.302,0.88453,0.33862,0.33774,7.46181,0.04538
0.303,0.88425,0.33827,0.33734,7.44674,0.04542
0.304,0.88396,0.33791,0.33694,7.43155,0.04547
0.305,0.88368,0.33756,0.33653,7.41626,0.04552
0.306,0.8834,0.3372,0.33613,7.40177,0.04556
0.307,0.88311,0.33685,0.33573,7.38755,0.0456
0.308,0.88283,0.3365,0.33533,7.37322,0.04564
0.309,0.88255,0.33614,0.33493,7.35878,0.04568
0.31,0.88226,0.33579,0.33453,7.34424,0.04572
0.311,0.88198,0.33544,0.33413,7.3296,0.04576
0.312,0.8817,0.33509,0.33373,7.31484,0.04581
0.313,0.88141,0.33473,0.33333,7.30062,0.04585
0.314,0.88113,0.33438,0.33293,7.28692,0.04589
0.315,0.88085,0.33403,0.33253,7.27312,0.04593
0.316,0.88057,0.33368,0.33214,7.25922,0.04597
0.317,0.88028,0.33333,0.33174,7.24522,0.04601
0.318,0.88,0.33298,0.33134,7.23112,0.04605
0.319,0.87972,0.33263,0.33094,7.21692,0.04609
0.32,0.87944,0.33229,0.33055,7.20266,0.04613
0.321,0.87915,0.33194,0.33015,7.1895,0.04617
0.322,0.87887,0.33159,0.32975,7.17623,0.04621
0.323,0.87859,0.33124,0.32936,7.16288,0.04624
0.324,0.8783,0.3309,0.32896,7.14944,0.04628
0.325,0.87802,0.33055,0.32857,7.13589,0.04632
0.326,0.87774,0.3302,0.32817,7.12226,0.04636
0.327,0.87746,0.32986,0.32778,7.10853,0.0464
0.328,0.87718,0.32951,0.32739,7.09505,0.04644
0.329,0.87689,0.32917,0.32699,7.08233,0.04648
0.33,0.87661,0.32883,0.3266,7.06953,0.04651
0.331,0.87633,0.32848,0.32621,7.05664,0.04655
0.332,0.87605,0.32814,0.32582,7.04367,0.04659
0.333,0.87576,0.3278,0.32542,7.0306,0.04662
0.334,0.87548,0.32745,0.32503,7.01744,0.04666
0.335,0.8752,0.32711,0.32464,7.0042,0.0467
0.336,0.87492,0.32677,0.32425,6.99117,0.04674
0.337,0.87463,0.32643,0.32386,6.97892,0.04677
0.338,0.87435,0.32609,0.32347,6.96659,0.04681
0.339,0.87407,0.32575,0.32308,6.95418,0.04684
0.34,0.87379,0.32541,0.3227,6.94169,0.04688
0.341,0.8735,0.32507,0.32231,6.92911,0.04691
0.342,0.87322,0.32474,0.32192,6.91645,0.04695
0.343,0.87294,0.3244,0.32153,6.9037,0.04699
0.344,0.87266,0.32406,0.32115,6.89087,0.04703
0.345,0.87237,0.32373,0.32076,6.87902,0.04706
0.346,0.87209,0.32339,0.32037,6.86718,0.04709
0.347,0.87181,0.32305,0.31999,6.85525,0.04713
0.348,0.87153,0.32272,0.3196,6.84326,0.04716
0.349,0.87124,0.32238,0.31922,6.83118,0.04719
0.35,0.87096,0.32205,0.31884,6.81902,0.04723
0.351,0.87068,0.32172,0.31845,6.80679,0.04726
0.352,0.87039,0.32139,0.31807,6.79447,0.0473
0.353,0.87011,0.32105,0.31769,6.78239,0.04734
0.354,0.86983,0.32072,0.31731,6.77104,0.04737
0.355,0.86955,0.32039,0.31693,6.75961,0.0474
0.356,0.86926,0.32006,0.31654,6.74812,0.04743
0.357,0.86898,0.31973,0.31616,6.73655,0.04746
0.358,0.8687,0.3194,0.31579,6.72491,0.0475
0.359,0.86841,0.31907,0.31541,6.71319,0.04753
0.36,0.86813,0.31874,0.31503,6.7014,0.04756
0.361,0.86785,0.31841,0.31465,6.68953,0.0476
0.362,0.86756,0.31809,0.31427,6.67792,0.04763
0.363,0.86728,0.31776,0.31389,6.66699,0.04766
0.364,0.867,0.31743,0.31352,6.656,0.04769
0.365,0.86671,0.31711,0.31314,6.64495,0.04772
0.366,0.86643,0.31678,0.31277,6.63382,0.04775
0.367,0.86615,0.31646,0.31239,6.62263,0.04778
0.368,0.86586,0.31614,0.31202,6.61137,0.04782
0.369,0.86558,0.31581,0.31164,6.60003,0.04785
0.37,0.8653,0.31549,0.31127,6.58863,0.04788
0.371,0.86501,0.31517,0.3109,6.57716,0.04792
0.372,0.86473,0.31485,0.31052,6.56664,0.04795
0.373,0.86444,0.31452,0.31015,6.5561,0.04797
0.374,0.86416,0.3142,0.30978,6.54549,0.048
0.375,0.86387,0.31388,0.30941,6.53482,0.04803
0.376,0.86359,0.31357,0.30904,6.52409,0.04806
0.377,0.86331,0.31325,0.30867,6.51329,0.04809
0.378,0.86302,0.31293,0.3083,6.50243,0.04812
0.379,0.86274,0.31261,0.30793,6.4915,0.04816
0.38,0.86245,0.31229,0.30756,6.4805,0.04819
0.381,0.86217,0.31198,0.3072,6.46972,0.04822
0.382,0.86188,0.31166,0.30683,6.45963,0.04825
0.383,0.8616,0.31135,0.30646,6.44948,0.04827
0.384,0.86131,0.31103,0.3061,6.43927,0.0483
0.385,0.86103,0.31072,0.30573,6.42901,0.04833
0.386,0.86074,0.3104,0.30537,6.41868,0.04836
0.387,0.86046,0.31009,0.305,6.4083,0.04839
0.388,0.86017,0.30978,0.30464,6.39785,0.04842
0.389,0.85989,0.30947,0.30428,6.38734,0.04845
0.39,0.8596,0.30915,0.30391,6.37677,0.04848
0.391,0.85931,0.30884,0.30355,6.36631,0.04851
0.392,0.85903,0.30853,0.30319,6.35663,0.04854
0.393,0.85874,0.30822,0.30283,6.34689,0.04856
0.394,0.85846,0.30792,0.30247,6.3371,0.04859
0.395,0.85817,0.30761,0.30211,6.32725,0.04862
0.396,0.85788,0.3073,0.30175,6.31734,0.04864
0.397,0.8576,0.30699,0.30139,6.30738,0.04867
0.398,0.85731,0.30669,0.30103,6.29736,0.0487
0.399,0.85702,0.30638,0.30068,6.28729,0.04873
0.4,0.85674,0.30607,0.30032,6.27716,0.04876
0.401,0.85645,0.30577,0.29996,6.26696,0.04879
0.402,0.85616,0.30547,0.29961,6.25737,0.04882
0.403,0.85588,0.30516,0.29925,6.24805,0.04884
0.404,0.85559,0.30486,0.2989,6.23868,0.04887
0.405,0.8553,0.30456,0.29855,6.22926,0.04889
0.406,0.85501,0.30426,0.29819,6.21979,0.04892
0.407,0.85473,0.30395,0.29784,6.21026,0.04894
0.408,0.85444,0.30365,0.29749,6.20068,0.04897
0.409,0.85415,0.30335,0.29714,6.19105,0.049
0.41,0.85386,0.30305,0.29678,6.18136,0.04903
0.411,0.85357,0.30275,0.29643,6.17162,0.04906
0.412,0.85328,0.30246,0.29608,6.16183,0.04909
0.413,0.853,0.30216,0.29573,6.15268,0.04911
0.414,0.85271,0.30186,0.29539,6.14374,0.04913
0.415,0.85242,0.30157,0.29504,6.13475,0.04916
0.416,0.85213,0.30127,0.29469,6.12572,0.04918
0.417,0.85184,0.30097,0.29434,6.11663,0.04921
0.418,0.85155,0.30068,0.294,6.1075,0.04923
0.419,0.85126,0.30039,0.29365,6.09832,0.04926
0.42,0.85097,0.30009,0.2933,6.08908,0.04928
0.421,0.85068,0.2998,0.29296,6.0798,0.04931
0.422,0.85039,0.29951,0.29262,6.07047,0.04934
0.423,0.8501,0.29921,0.29227,6.06108,0.04937
0.424,0.84981,0.29892,0.29193,6.05196,0.04939
0.425,0.84952,0.29863,0.29159,6.04341,0.04941
0.426,0.84923,0.29834,0.29125,6.03481,0.04944
