phi0,omega,M,Q,R_eff,C_eff
0,1.044465936,0,0,,0
0.001,1.0439915,0.063363404,0.060606331,143.5954787,0.000441263
0.002,1.043352708,0.088645968,0.084912224,100.5749337,0.000881392
0.003,1.04269827,0.107501975,0.102997566,82.02088174,0.001310666
0.004,1.042037358,0.122919652,0.117795546,70.94787879,0.001732535
0.005,1.041375017,0.136092835,0.130448056,63.38329366,0.002147141
0.006,1.040713792,0.147641339,0.141547741,57.79352314,0.002554635
0.007,1.040055155,0.157937899,0.151450874,53.44473221,0.002955163
0.008,1.039400028,0.167228371,0.160392376,49.93592387,0.003348859
0.009,1.038749015,0.175685628,0.168537383,47.02664431,0.003735874
0.01,1.038102528,0.183437083,0.176007566,44.56346839,0.004116311
0.011,1.037460848,0.190580091,0.182895868,42.44227024,0.004490337
0.012,1.03682417,0.197191195,0.189275347,40.59057863,0.004858053
0.013,1.036192625,0.203331986,0.195204775,38.95555003,0.00521959
0.014,1.0351658,0.209052981,0.200732347,37.49840012,0.005574984
0.015,1.034945244,0.214396286,0.20589823,36.1876875,0.005924564
0.016,1.034329486,0.219397482,0.210736358,35.00134798,0.006268258
0.017,1.033719033,0.224086992,0.215275745,33.92028537,0.006606283
0.018,1.033113874,0.228491094,0.219541449,32.93012609,0.006938664
0.019,1.032513987,0.232632696,0.223555314,32.01858943,0.007265551
0.02,1.031919342,0.23653192,0.227336528,31.17570956,0.007587058
0.021,1.0313299,0.240206572,0.230902068,30.39331691,0.007903269
0.022,1.030745614,0.243672505,0.23426705,29.664293,0.008214337
0.023,1.030166436,0.246943913,0.237445012,28.98318869,0.008520247
0.024,1.02959231,0.25003357,0.240448134,28.34456593,0.008821217
0.025,1.029023179,0.252953027,0.243287435,27.74430537,0.009117295
0.026,1.028458984,0.255712769,0.245972917,27.17855176,0.009408624
0.027,1.027899662,0.258322355,0.2485137,26.6446006,0.009695111
0.028,1.027345149,0.260790528,0.250918125,26.13934769,0.009976933
0.029,1.026795381,0.263125309,0.253193849,25.6597529,0.010254398
0.03,1.026250292,0.265334081,0.255347921,25.20430872,0.01052733
0.031,1.025709816,0.267423659,0.257386845,24.77088974,0.010795884
0.032,1.025173887,0.269400346,0.259316645,24.35799933,0.011060036
0.033,1.024642437,0.271269989,0.261142906,23.96384083,0.011319971
0.034,1.0241154,0.273038024,0.26287082,23.58660878,0.011575976
0.035,1.023592708,0.274709511,0.264505228,23.22586743,0.01182774
0.036,1.023074296,0.276289175,0.266050645,22.88028216,0.012075427
0.037,1.022560097,0.277781432,0.267511296,22.54832113,0.012319384
0.038,1.022050044,0.279190415,0.268891137,22.2293639,0.012559532
0.039,1.021544073,0.280520005,0.270193881,21.92272032,0.012795858
0.04,1.021042119,0.281773843,0.271423016,21.6276667,0.013028398
0.041,1.020544116,0.282955357,0.272581824,21.34352146,0.013257201
0.042,1.020050002,0.284067774,0.2736734,21.06888586,0.01348281
0.043,1.019559712,0.285114138,0.27470066,20.8045827,0.013704391
0.044,1.019073184,0.286097323,0.275666361,20.54880652,0.013922819
0.045,1.018590356,0.287020045,0.276573109,20.30139027,0.01413795
0.046,1.018111167,0.287884874,0.277423371,20.06222012,0.014349602
0.047,1.017635557,0.288694246,0.278219485,19.83076914,0.014557895
0.048,1.017163465,0.289450468,0.278963669,19.60657086,0.014762932
0.049,1.016694832,0.29015573,0.279658028,19.38913483,0.014964862
0.05,1.016229601,0.290812113,0.280304562,19.17795213,0.015163877
0.051,1.015767712,0.291421594,0.280905173,18.97263738,0.015360099
0.052,1.015309111,0.291986054,0.281461672,18.77420998,0.015552508
0.053,1.01485374,0.292507285,0.281975784,18.58069745,0.015742535
0.054,1.014401543,0.292986993,0.282449152,18.39258987,0.015929621
0.055,1.013952467,0.293426803,0.282883344,18.20983887,0.016113641
0.056,1.013506458,0.293828269,0.283279857,18.03158815,0.016295196
0.057,1.013063462,0.294192871,0.283640119,17.85830293,0.016473731
0.058,1.012623427,0.294522025,0.283965497,17.68945426,0.016649582
0.059,1.012186301,0.294817082,0.284257296,17.52425806,0.01682337
0.06,1.011752033,0.295079336,0.284516766,17.36424769,0.0169935
0.061,1.011320574,0.295310024,0.284745104,17.20745897,0.017161745
0.062,1.010891873,0.295510331,0.284943454,17.05449904,0.017327412
0.063,1.010465882,0.295681391,0.285112915,16.90500403,0.017490761
0.064,1.010042552,0.295824292,0.285254538,16.75957908,0.017651057
0.065,1.009621836,0.295940074,0.285369334,16.61724326,0.017809216
0.066,1.009203688,0.296029737,0.28545827,16.47784488,0.017965319
0.067,1.008788061,0.296094241,0.285522277,16.34144697,0.018119218
0.068,1.00837491,0.296134506,0.285562248,16.20799968,0.018270886
0.069,1.00796419,0.296151415,0.28557904,16.07795434,0.01841972
0.07,1.007555856,0.296145818,0.285573478,15.95059147,0.018566447
0.071,1.007149867,0.29611853,0.285546355,15.8258392,0.018711079
0.072,1.006746178,0.296070336,0.285498434,15.70362107,0.018853635
0.073,1.006344747,0.29600199,0.285430447,15.58385641,0.018994143
0.074,1.005945533,0.295914217,0.285343103,15.46646065,0.01913264
0.075,1.005548495,0.295807717,0.285237079,15.35134577,0.019269172
0.076,1.005153592,0.29568316,0.285113032,15.2384207,0.019403793
0.077,1.004760785,0.295541194,0.284971592,15.12759318,0.019536564
0.078,1.004370034,0.295382443,0.284813366,15.01938888,0.019666742
0.079,1.003981301,0.295207507,0.284638942,14.91320056,0.019795047
0.08,1.003594547,0.295016964,0.284448884,14.80892499,0.019921565
0.081,1.003209735,0.294811373,0.284243737,14.70615432,0.020046803
0.082,1.002826827,0.294591271,0.284024027,14.60534288,0.020170103
0.083,1.002445788,0.294357177,0.283790261,14.50626289,0.020291731
0.084,1.002066581,0.294109592,0.28354293,14.40895537,0.020411583
0.085,1.001689172,0.293848998,0.283282505,14.31403004,0.02052874
0.086,1.001313524,0.293575862,0.283009443,14.22048514,0.020644574
0.087,1.000939603,0.293290633,0.282724186,14.12819932,0.020759237
0.088,1.000567376,0.292993747,0.282427159,14.03706428,0.020872865
0.089,1.000196809,0.292685621,0.282118775,13.94815923,0.020983817
0.09,0.99982787,0.292366662,0.28179943,13.86085352,0.021092977
0.091,0.999460524,0.292037262,0.28146951,13.77445092,0.021201372
0.092,0.999094742,0.291697798,0.281129386,13.68896571,0.021308973
0.093,0.99873049,0.291348636,0.280779418,13.6061811,0.021412962
0.094,0.998367738,0.290990129,0.280419954,13.52404347,0.021516504
0.095,0.998006454,0.29062262,0.280051331,13.44244914,0.021619767
0.096,0.99764661,0.290246439,0.279673873,13.36342679,0.021719462
0.097,0.997288174,0.289861905,0.279287895,13.28505346,0.021818648
0.098,0.996931118,0.289469328,0.278893704,13.20699088,0.021917887
0.099,0.996575413,0.289069006,0.278491593,13.13172956,0.022013019
0.1,0.996221029,0.28866123,0.278081849,13.05659705,0.022108458
0.101,0.995867938,0.288246279,0.277664748,12.98217859,0.022203229
0.102,0.995516114,0.287824424,0.277240559,12.90984218,0.022294961
0.103,0.995165528,0.287395928,0.27680954,12.8381797,0.022386034
0.104,0.994816153,0.286961045,0.276371943,12.76679438,0.022477142
0.105,0.994467963,0.286520021,0.275928012,12.69766024,0.022564789
0.106,0.994120931,0.286073093,0.275477983,12.62876093,0.022652507
0.107,0.993775032,0.285620494,0.275022084,12.56125826,0.022738207
0.108,0.993430239,0.285162445,0.274560537,12.49368506,0.022824527
0.109,0.993086528,0.284699165,0.274093557,12.42842372,0.022907102
0.11,0.992743874,0.284230861,0.273621352,12.3624784,0.022991414
0.111,0.992402251,0.283757739,0.273144124,12.29905922,0.0230715
0.112,0.992061637,0.283279994,0.272662069,12.23504248,0.023153168
0.113,0.991722007,0.282797818,0.272175377,12.17305712,0.023231454
0.114,0.991383337,0.282311395,0.271684231,12.11081042,0.023310694
0.115,0.991045604,0.281820904,0.27118881,12.05030037,0.023387044
0.116,0.990708786,0.28132652,0.270689288,11.98966201,0.023464091
0.117,0.990372859,0.280828411,0.270185832,11.93066339,0.023538374
0.118,0.990037802,0.280326741,0.269678606,11.87146944,0.023613483
0.119,0.989703592,0.279821667,0.269167767,11.81401299,0.023685573
0.12,0.989370208,0.279313344,0.268653469,11.75609818,0.023759018
0.121,0.989037628,0.278801919,0.268135861,11.69974078,0.023829752
0.122,0.988705832,0.278287539,0.267615087,11.64404398,0.023899561
0.123,0.988374797,0.277770342,0.267091288,11.58858751,0.023969301
0.124,0.988044504,0.277250465,0.266564599,11.5342583,0.02403713
0.125,0.987714933,0.27672804,0.266035152,11.48055539,0.024104064
0.126,0.987386062,0.276203194,0.265503076,11.42687641,0.024171364
0.127,0.987057874,0.275676051,0.264968495,11.37440083,0.024236534
0.128,0.986730347,0.275146732,0.26443153,11.32238304,0.024301133
0.129,0.986403463,0.274615354,0.263892299,11.27048641,0.024365883
0.13,0.986077203,0.274082029,0.263350914,11.22013406,0.024427696
0.131,0.985751547,0.273546868,0.262807487,11.16887344,0.024491894
0.132,0.985426479,0.273009977,0.262262124,11.11996603,0.024551332
0.133,0.985101978,0.272471461,0.261714931,11.07041826,0.024612572
0.134,0.984778027,0.271931418,0.261166008,11.02171474,0.024672333
0.135,0.984454609,0.271389947,0.260615454,10.97387358,0.024730552
0.136,0.984131706,0.270847142,0.260063363,10.92521613,0.02479101
0.137,0.983809299,0.270303095,0.259509829,10.87907095,0.024846156
0.138,0.983487374,0.269757895,0.258954941,10.8321382,0.024903476
0.139,0.983165911,0.269211629,0.258398787,10.78584315,0.02495972
0.14,0.982844895,0.26866438,0.257841452,10.74063701,0.025013822
0.141,0.982524309,0.268116229,0.257283018,10.69441253,0.025070683
0.142,0.982204137,0.267567256,0.256723565,10.65049683,0.025122514
0.143,0.981884363,0.267017538,0.256163171,10.60585529,0.025176427
0.144,0.981564971,0.266467148,0.255601911,10.56213923,0.025228521
0.145,0.981245945,0.265916159,0.255039859,10.51914869,0.025279247
0.146,0.98092727,0.265364641,0.254477085,10.47597245,0.025330788
0.147,0.980608931,0.264812662,0.25391366,10.43301939,0.025382169
0.148,0.980290911,0.264260288,0.25334965,10.39158405,0.025430222
0.149,0.979973198,0.263707583,0.25278512,10.3494889,0.025480252
0.15,0.979655775,0.263154609,0.252220133,10.30803369,0.025529079
0.151,0.979338629,0.262601427,0.251654752,10.26768852,0.025575516
0.152,0.979021744,0.262048095,0.251089036,10.22671183,0.025623886
0.153,0.978705108,0.261494669,0.250523042,10.18652965,0.025670634
0.154,0.978388705,0.260941205,0.249956828,10.14730674,0.025715317
0.155,0.978072522,0.260387757,0.249390448,10.10748072,0.025761885
0.156,0.977756545,0.259834375,0.248823954,10.0683459,0.025807057
0.157,0.977440761,0.259281112,0.2482574,10.03027231,0.025849858
0.158,0.977125157,0.258728014,0.247690833,9.991624,0.025894491
0.159,0.976809719,0.25817513,0.247124304,9.953311445,0.025938617
0.16,0.976494434,0.257622506,0.24655786,9.91640926,0.025979414
0.161,0.97617929,0.257070185,0.245991546,9.878986153,0.02602192
0.162,0.975864273,0.256518212,0.245425406,9.841646827,0.026064562
0.163,0.975549372,0.255966629,0.244859485,9.805030749,0.026105643
0.164,0.975234574,0.255415475,0.244293823,9.769185391,0.026145013
0.165,0.974919866,0.25486479,0.243728462,9.732539767,0.026186874
0.166,0.974605237,0.254314613,0.24316344,9.697454613,0.026224883
0.167,0.974290675,0.253764981,0.242598797,9.662450976,0.026263003
0.168,0.973976167,0.253215929,0.24203457,9.626946156,0.02630283
0.169,0.973661702,0.252667492,0.241470793,9.591976786,0.026341545
0.17,0.973347269,0.252119704,0.240907504,9.558208871,0.026377296
0.171,0.973032856,0.251572597,0.240344735,9.523967575,0.026414684
0.172,0.972718452,0.251026204,0.239782519,9.489243252,0.026453764
0.173,0.972404046,0.250480555,0.239220888,9.456371295,0.02648802
0.174,0.972089627,0.249935679,0.238659874,9.423395562,0.02652289
0.175,0.971775184,0.249391606,0.238099506,9.389964683,0.026559376
0.176,0.971460706,0.248848364,0.237539813,9.356732504,0.026595648
0.177,0.971146182,0.248305978,0.236980824,9.32501993,0.02662793
0.178,0.970831603,0.247764476,0.236422566,9.292879379,0.026661755
0.179,0.970516957,0.247223883,0.235865065,9.260302429,0.026697172
0.18,0.970202235,0.246684223,0.235308348,9.228630182,0.026730318
0.181,0.969887426,0.24614552,0.234752439,9.197393307,0.026762531
0.182,0.969572521,0.245607797,0.234197362,9.165489107,0.02679702
0.183,0.969257509,0.245071076,0.23364314,9.135302006,0.026826817
0.184,0.968942381,0.244535378,0.233089797,9.104719502,0.02685809
0.185,0.968627126,0.244000724,0.232537353,9.074461538,0.026888728
0.186,0.968311736,0.243467135,0.231985831,9.044101714,0.026919991
0.187,0.967996202,0.242934629,0.231435251,9.013343954,0.026952775
0.188,0.967680512,0.242403225,0.230885632,8.983955627,0.026981792
0.189,0.967364659,0.241872941,0.230336994,8.9549033,0.027010112
0.19,0.967048634,0.241343795,0.229789356,8.925479399,0.027039869
0.191,0.966732426,0.240815803,0.229242735,8.895677023,0.027071105
0.192,0.966416028,0.240288983,0.228697149,8.867011946,0.027099206
0.193,0.96609943,0.239763348,0.228152614,8.838900435,0.027125925
0.194,0.965782624,0.239238915,0.227609147,8.81043634,0.027154037
0.195,0.965465601,0.238715698,0.227066763,8.781613225,0.027183581
0.196,0.965148352,0.238193711,0.226525478,8.753395155,0.02721158
0.197,0.964830869,0.237672968,0.225985306,8.72624358,0.027236573
0.198,0.964513144,0.237153481,0.225446261,8.698758322,0.027262912
0.199,0.964195169,0.236635263,0.224908357,8.670933392,0.027290633
0.2,0.963876934,0.236118327,0.224371607,8.642890647,0.02731937
0.201,0.963558433,0.235602683,0.223836024,8.616017212,0.027344732
0.202,0.963239657,0.235088343,0.223301619,8.589837646,0.027368194
0.203,0.962920598,0.234575317,0.222768404,8.563343254,0.02739296
0.204,0.962601249,0.234063616,0.222236391,8.536528505,0.027419063
0.205,0.962281601,0.23355325,0.221705591,8.510082872,0.027444298
0.206,0.961961647,0.233044227,0.221176014,8.484593402,0.027466753
0.207,0.96164138,0.232536558,0.220647669,8.458802263,0.027490483
0.208,0.961320792,0.232030251,0.220120568,8.432704242,0.027515521
0.209,0.960999875,0.231525313,0.219594718,8.406294071,0.0275419
0.21,0.960678622,0.231021753,0.219070129,8.381637128,0.027562844
0.211,0.960357026,0.230519579,0.21854681,8.356872267,0.027584433
0.212,0.96003508,0.230018797,0.218024768,8.331819409,0.027607271
0.213,0.959712777,0.229519415,0.217504011,8.30647368,0.02763139
0.214,0.959390109,0.229021439,0.216984547,8.281111218,0.027655883
0.215,0.95906707,0.228524875,0.216466383,8.257372974,0.027675252
0.216,0.958743653,0.228029729,0.215949525,8.233365164,0.027695812
0.217,0.95841985,0.227536008,0.215433981,8.20908329,0.02771759
0.218,0.958095656,0.227043715,0.214919757,8.184522809,0.027740617
0.219,0.957771064,0.226552856,0.214406857,8.160057216,0.027763636
0.22,0.957446066,0.226063436,0.213895289,8.13709011,0.027781852
0.221,0.957120657,0.225575459,0.213385057,8.113539481,0.027802349
0.222,0.95679483,0.22508893,0.212876167,8.089573157,0.027824574
0.223,0.956468578,0.224603852,0.212368623,8.066209799,0.02784503
0.224,0.956141896,0.22412023,0.21186243,8.04364117,0.027863032
0.225,0.955814776,0.223638066,0.211357591,8.020570637,0.027883062
0.226,0.955487213,0.223157363,0.210854112,7.998155884,0.027901102
0.227,0.955159201,0.222678126,0.210351996,7.975495305,0.027920288
0.228,0.954830734,0.222200356,0.209851246,7.952584975,0.027940645
0.229,0.954501805,0.221724056,0.209351867,7.929420926,0.0279622
0.23,0.954172408,0.221249228,0.20885386,7.907581459,0.02797938
0.231,0.953842538,0.220775875,0.208357228,7.885993404,0.02799595
0.232,0.953512189,0.220303998,0.207861976,7.864173638,0.028013623
0.233,0.953181355,0.219833599,0.207368104,7.842118525,0.028032425
0.234,0.952850031,0.219364679,0.206875616,7.819824391,0.028052379
0.235,0.95251821,0.21889724,0.206384513,7.797876771,0.02807139
0.236,0.952185887,0.218431284,0.205894797,7.777129355,0.028086364
0.237,0.951853056,0.21796681,0.205406471,7.756164223,0.028102398
0.238,0.951519713,0.21750382,0.204919534,7.734978018,0.028119514
0.239,0.951185851,0.217042314,0.20443399,7.713567346,0.028137735
0.24,0.950851465,0.216582293,0.203949839,7.691928778,0.028157085
0.241,0.95051655,0.216123757,0.203467081,7.671717724,0.028171495
0.242,0.950181101,0.215666707,0.202985719,7.650463426,0.028190019
0.243,0.949845112,0.215211141,0.202505752,7.629882503,0.028206351
0.244,0.949508578,0.214757061,0.202027181,7.609978284,0.028220457
0.245,0.949171494,0.214304465,0.201550006,7.58964352,0.028236434
0.246,0.948833854,0.213853354,0.201074229,7.568695325,0.028254983
0.247,0.948495655,0.213403726,0.200599848,7.549014356,0.028269085
0.248,0.948156891,0.212955581,0.200126864,7.529588447,0.0282825
0.249,0.947817556,0.212508919,0.199655277,7.509966452,0.02829692
0.25,0.947477646,0.212063738,0.199185085,7.490145469,0.028312366
0.251,0.947137157,0.211620037,0.19871629,7.470122569,0.028328857
0.252,0.946796082,0.211177814,0.19824889,7.449894793,0.028346416
0.253,0.946454419,0.21073707,0.197782885,7.43078083,0.028360017
0.254,0.946112161,0.210297802,0.197318273,7.412055026,0.028372402
0.255,0.945769304,0.209860008,0.196855055,7.393144177,0.028385759
0.256,0.945425844,0.209423687,0.196393228,7.374045596,0.028400107
0.257,0.945081776,0.208988838,0.195932792,7.354756576,0.028415466
0.258,0.944737095,0.208555458,0.195473746,7.335274377,0.028431855
0.259,0.944391797,0.208123546,0.195016088,7.316353213,0.02844635
0.26,0.944045878,0.207693099,0.194559816,7.298347653,0.028457551
0.261,0.943699332,0.207264116,0.19410493,7.279824025,0.028471034
0.262,0.943352157,0.206836593,0.193651427,7.261553502,0.028483794
0.263,0.943004346,0.20641053,0.193199306,7.243105281,0.028497519
0.264,0.942655896,0.205985923,0.192748566,7.224476857,0.028512227
0.265,0.942306803,0.205562771,0.192299203,7.205660386,0.028527957
0.266,0.941957063,0.205141069,0.191851216,7.188195092,0.028538606
0.267,0.941606671,0.204720817,0.191404604,7.170762358,0.02854938
0.268,0.941255623,0.204302011,0.190959364,7.153164401,0.028561068
0.269,0.940903915,0.203884649,0.190515493,7.135398925,0.028573686
0.27,0.940551543,0.203468727,0.19007299,7.117463608,0.028587252
0.271,0.940198502,0.203054243,0.189631852,7.099356108,0.028601783
0.272,0.93984479,0.202641194,0.189192076,7.081312038,0.028616335
0.273,0.939490401,0.202229577,0.188753661,7.064636942,0.028625615
0.274,0.939135333,0.201819389,0.188316603,7.047807721,0.028635768
0.275,0.93877958,0.201410626,0.1878809,7.03082227,0.02864681
0.276,0.93842314,0.201003286,0.187446549,7.013678463,0.028658754
0.277,0.938066007,0.200597365,0.187013548,6.996374154,0.028671618
0.278,0.93770818,0.200192859,0.186581893,6.978907176,0.028685417
0.279,0.937349653,0.199789767,0.186151582,6.961491168,0.028699278
0.28,0.936990422,0.199388083,0.185722612,6.945436787,0.028707782
0.281,0.936630486,0.198987806,0.18529498,6.929233945,0.028717144
0.282,0.936269838,0.19858893,0.184868683,6.912501286,0.028728954
0.283,0.935908477,0.198191453,0.184443717,6.895614281,0.028741668
0.284,0.935546398,0.197795371,0.18402008,6.878570886,0.0287553
0.285,0.935183597,0.197400681,0.183597768,6.862948607,0.028763246
0.286,0.934820071,0.197007378,0.183176779,6.84599387,0.028777031
0.287,0.934455817,0.19661546,0.182757108,6.830326743,0.02878566
0.288,0.934090832,0.196224922,0.182338753,6.814778442,0.028794028
0.289,0.93372511,0.19583576,0.18192171,6.799092268,0.028803222
0.29,0.93335865,0.195447972,0.181505976,6.783266418,0.028813253
0.291,0.932991447,0.195061552,0.181091547,6.767299079,0.028824136
0.292,0.932623499,0.194676497,0.18067842,6.751188416,0.028835886
0.293,0.932254801,0.194292803,0.180266591,6.734932581,0.028848515
0.294,0.931885351,0.193910466,0.179856058,6.719016472,0.028859948
0.295,0.931515145,0.193529483,0.179446815,6.704136204,0.028867177
0.296,0.931144181,0.193149849,0.179038861,6.689127263,0.028875194
0.297,0.930772453,0.19277156,0.17863219,6.673988004,0.028884014
0.298,0.93039996,0.192394611,0.178226799,6.658716765,0.028893647
0.299,0.930026699,0.192019,0.177822685,6.643311869,0.028904108
0.3,0.929652665,0.191644722,0.177419844,6.627771626,0.028915408
