phi0,omega,M,Q,R_eff,C_eff
0,1.150792911,0,0,,0
0.001,1.15012,0.06214,0.05401,120.02401,0.00052
0.002,1.14929,0.08736,0.07596,84.78073,0.00103
0.003,1.14842,0.10637,0.09251,69.14988,0.00154
0.004,1.14755,0.12211,0.10623,59.8226,0.00204
0.005,1.14667,0.13574,0.11811,53.45113,0.00254
0.006,1.1458,0.14784,0.12867,48.74329,0.00303
0.007,1.14492,0.15877,0.13822,45.08091,0.00352
0.008,1.14404,0.16876,0.14696,42.12602,0.00401
0.009,1.14317,0.17798,0.15503,39.67615,0.00449
0.01,1.14229,0.18655,0.16253,37.60202,0.00496
0.011,1.14142,0.19455,0.16954,35.81576,0.00543
0.012,1.14056,0.20206,0.17613,34.25672,0.0059
0.013,1.13969,0.20913,0.18234,32.87998,0.00636
0.014,1.13884,0.21582,0.18822,31.65253,0.00682
0.015,1.13798,0.22215,0.19379,30.54892,0.00727
0.016,1.13713,0.22817,0.19908,29.55001,0.00772
0.017,1.13628,0.2339,0.20413,28.63971,0.00817
0.018,1.13544,0.23936,0.20894,27.80591,0.00861
0.019,1.13459,0.24458,0.21354,27.03819,0.00905
0.02,1.13376,0.24957,0.21794,26.32814,0.00948
0.021,1.13269,0.25435,0.22216,25.66927,0.00991
0.022,1.1321,0.25893,0.22621,25.05515,0.01033
0.023,1.13127,0.26332,0.2301,24.48128,0.01076
0.024,1.13045,0.26755,0.23384,23.94354,0.01117
0.025,1.12964,0.27161,0.23744,23.43765,0.01159
0.026,1.12882,0.27552,0.2409,22.96123,0.012
0.027,1.12801,0.27928,0.24424,22.51147,0.01241
0.028,1.12721,0.2829,0.24746,22.08523,0.01281
0.029,1.12641,0.2864,0.25056,21.68153,0.01321
0.03,1.12561,0.28977,0.25356,21.29776,0.01361
0.031,1.12482,0.29303,0.25646,20.93229,0.014
0.032,1.12403,0.29617,0.25926,20.58442,0.01439
0.033,1.12325,0.2992,0.26196,20.25185,0.01477
0.034,1.12246,0.30214,0.26458,19.9343,0.01516
0.035,1.12169,0.30498,0.26711,19.63009,0.01554
0.036,1.12091,0.30772,0.26956,19.3385,0.01591
0.037,1.12014,0.31037,0.27193,19.05873,0.01629
0.038,1.11938,0.31294,0.27423,18.78989,0.01665
0.039,1.11861,0.31543,0.27646,18.53105,0.01702
0.04,1.11785,0.31784,0.27861,18.28253,0.01738
0.041,1.1171,0.32017,0.2807,18.04251,0.01775
0.042,1.11635,0.32243,0.28273,17.81148,0.0181
0.043,1.1156,0.32462,0.28469,17.58798,0.01846
0.044,1.11486,0.32674,0.2866,17.37227,0.01881
0.045,1.11411,0.3288,0.28845,17.16394,0.01916
0.046,1.11338,0.33079,0.29024,16.96224,0.0195
0.047,1.11264,0.33273,0.29198,16.7669,0.01984
0.048,1.11191,0.3346,0.29367,16.57761,0.02018
0.049,1.11118,0.33642,0.2953,16.39403,0.02052
0.05,1.11046,0.33818,0.29689,16.21582,0.02086
0.051,1.10974,0.33989,0.29844,16.04279,0.02119
0.052,1.10902,0.34155,0.29993,15.87526,0.02151
0.053,1.10831,0.34316,0.30139,15.71217,0.02184
0.054,1.1076,0.34472,0.3028,15.55311,0.02216
0.055,1.10689,0.34624,0.30417,15.39914,0.02248
0.056,1.10619,0.34771,0.3055,15.2488,0.0228
0.057,1.10548,0.34913,0.30679,15.10253,0.02312
0.058,1.10479,0.35052,0.30805,14.95996,0.02343
0.059,1.10409,0.35186,0.30926,14.82112,0.02374
0.06,1.1034,0.35317,0.31045,14.68534,0.02405
0.061,1.10271,0.35443,0.3116,14.55355,0.02435
0.062,1.10203,0.35566,0.31271,14.42435,0.02466
0.063,1.10134,0.35685,0.31379,14.29831,0.02496
0.064,1.10066,0.358,0.31484,14.17563,0.02525
0.065,1.09999,0.35912,0.31586,14.05543,0.02555
0.066,1.09931,0.36021,0.31685,13.93771,0.02584
0.067,1.09864,0.36127,0.31782,13.82277,0.02614
0.068,1.09797,0.36229,0.31875,13.71074,0.02642
0.069,1.09731,0.36328,0.31965,13.60099,0.02671
0.07,1.09665,0.36424,0.32053,13.49349,0.02699
0.071,1.09599,0.36518,0.32138,13.3882,0.02728
0.072,1.09533,0.36608,0.32221,13.28506,0.02756
0.073,1.09467,0.36696,0.32301,13.18403,0.02783
0.074,1.09402,0.36781,0.32379,13.08506,0.02811
0.075,1.09337,0.36863,0.32455,12.98808,0.02838
0.076,1.09273,0.36943,0.32528,12.89303,0.02865
0.077,1.09209,0.3702,0.32599,12.79986,0.02892
0.078,1.09144,0.37095,0.32667,12.70848,0.02919
0.079,1.09081,0.37168,0.32734,12.61883,0.02945
0.08,1.09017,0.37238,0.32798,12.53085,0.02972
0.081,1.08954,0.37306,0.32861,12.44444,0.02998
0.082,1.08891,0.37372,0.32921,12.35954,0.03024
0.083,1.08828,0.37435,0.3298,12.27608,0.03049
0.084,1.08765,0.37497,0.33037,12.19396,0.03075
0.085,1.08703,0.37556,0.33091,12.11383,0.031
0.086,1.08641,0.37614,0.33144,12.03513,0.03125
0.087,1.08579,0.3767,0.33196,11.95762,0.0315
0.088,1.08517,0.37723,0.33245,11.88122,0.03175
0.089,1.08456,0.37775,0.33293,11.80584,0.032
0.09,1.08395,0.37825,0.33339,11.73227,0.03224
0.091,1.08334,0.37873,0.33384,11.66003,0.03248
0.092,1.08273,0.3792,0.33427,11.58863,0.03272
0.093,1.08213,0.37965,0.33468,11.51798,0.03296
0.094,1.08153,0.38008,0.33508,11.44918,0.0332
0.095,1.08093,0.3805,0.33547,11.38142,0.03343
0.096,1.08033,0.3809,0.33584,11.31423,0.03367
0.097,1.07973,0.38128,0.3362,11.24819,0.0339
0.098,1.07914,0.38165,0.33654,11.1837,0.03413
0.099,1.07855,0.38201,0.33687,11.11959,0.03435
0.1,1.07796,0.38235,0.33719,11.05646,0.03458
0.101,1.07737,0.38268,0.33749,10.99486,0.03481
0.102,1.07679,0.38299,0.33778,10.93343,0.03503
0.103,1.0762,0.38329,0.33806,10.87333,0.03525
0.104,1.07562,0.38358,0.33833,10.8142,0.03547
0.105,1.07504,0.38385,0.33859,10.75505,0.03569
0.106,1.07447,0.38411,0.33883,10.69806,0.0359
0.107,1.07389,0.38436,0.33906,10.64099,0.03612
0.108,1.07332,0.3846,0.33929,10.58495,0.03633
0.109,1.07275,0.38483,0.3395,10.52986,0.03655
0.11,1.07218,0.38504,0.3397,10.47483,0.03676
0.111,1.07161,0.38525,0.33989,10.42161,0.03697
0.112,1.07105,0.38544,0.34007,10.36791,0.03718
0.113,1.07048,0.38562,0.34024,10.31617,0.03738
0.114,1.06992,0.38579,0.3404,10.2641,0.03759
0.115,1.06936,0.38595,0.34055,10.21347,0.03779
0.116,1.0688,0.3861,0.34069,10.16291,0.03799
0.117,1.06825,0.38624,0.34082,10.11342,0.03819
0.118,1.06769,0.38638,0.34095,10.06424,0.03839
0.119,1.06714,0.3865,0.34106,10.01594,0.03859
0.12,1.06659,0.38661,0.34117,9.96801,0.03879
0.121,1.06604,0.38672,0.34126,9.92092,0.03898
0.122,1.06549,0.38681,0.34135,9.87411,0.03917
0.123,1.06495,0.3869,0.34144,9.82827,0.03937
0.124,1.06441,0.38698,0.34151,9.78245,0.03956
0.125,1.06386,0.38705,0.34158,9.73787,0.03975
0.126,1.06332,0.38711,0.34163,9.69291,0.03994
0.127,1.06278,0.38716,0.34168,9.64961,0.04012
0.128,1.06225,0.38721,0.34173,9.60548,0.04031
0.129,1.06171,0.38725,0.34176,9.56337,0.04049
0.13,1.06118,0.38728,0.34179,9.52057,0.04068
0.131,1.06065,0.3873,0.34182,9.47903,0.04086
0.132,1.06012,0.38732,0.34183,9.43757,0.04104
0.133,1.05959,0.38733,0.34184,9.39646,0.04122
0.134,1.05906,0.38733,0.34184,9.35635,0.0414
0.135,1.05853,0.38733,0.34184,9.31554,0.04158
0.136,1.05801,0.38732,0.34183,9.27678,0.04175
0.137,1.05749,0.3873,0.34181,9.23733,0.04193
0.138,1.05696,0.38728,0.34179,9.19872,0.0421
0.139,1.05644,0.38725,0.34176,9.16066,0.04227
0.14,1.05593,0.38721,0.34173,9.12205,0.04245
0.141,1.05541,0.38717,0.34169,9.08536,0.04261
0.142,1.05489,0.38712,0.34165,9.04805,0.04279
0.143,1.05438,0.38707,0.3416,9.01131,0.04295
0.144,1.05387,0.38701,0.34154,8.97539,0.04312
0.145,1.05335,0.38695,0.34148,8.93887,0.04329
0.146,1.05284,0.38688,0.34142,8.90383,0.04345
0.147,1.05234,0.38681,0.34135,8.86873,0.04361
0.148,1.05183,0.38673,0.34127,8.83322,0.04378
0.149,1.05132,0.38664,0.34119,8.79952,0.04394
0.15,1.05082,0.38655,0.3411,8.76528,0.0441
0.151,1.05032,0.38646,0.34102,8.73113,0.04426
0.152,1.04981,0.38636,0.34092,8.69829,0.04442
0.153,1.04931,0.38626,0.34082,8.66494,0.04458
0.154,1.04881,0.38615,0.34072,8.63195,0.04473
0.155,1.04832,0.38604,0.34061,8.60002,0.04489
0.156,1.04782,0.38592,0.3405,8.56759,0.04504
0.157,1.04732,0.3858,0.34039,8.53559,0.0452
0.158,1.04683,0.38568,0.34027,8.50458,0.04535
0.159,1.04634,0.38555,0.34014,8.4731,0.0455
0.16,1.04584,0.38541,0.34002,8.4419,0.04565
0.161,1.04535,0.38528,0.33988,8.41184,0.0458
0.162,1.04486,0.38514,0.33975,8.38133,0.04595
0.163,1.04438,0.38499,0.33961,8.35074,0.0461
0.164,1.04389,0.38484,0.33947,8.32164,0.04625
0.165,1.0434,0.38469,0.33932,8.29213,0.04639
0.166,1.04292,0.38454,0.33918,8.26218,0.04654
0.167,1.04244,0.38438,0.33902,8.23385,0.04668
0.168,1.04195,0.38422,0.33887,8.20534,0.04683
0.169,1.04147,0.38405,0.33871,8.17642,0.04697
0.17,1.04099,0.38388,0.33855,8.1483,0.04711
0.171,1.04051,0.38371,0.33838,8.1208,0.04725
0.172,1.04003,0.38354,0.33821,8.09292,0.04739
0.173,1.03956,0.38336,0.33804,8.06484,0.04753
0.174,1.03908,0.38318,0.33787,8.03835,0.04767
0.175,1.03861,0.38299,0.33769,8.0115,0.04781
0.176,1.03813,0.38281,0.33751,7.98429,0.04795
0.177,1.03766,0.38262,0.33733,7.95782,0.04808
0.178,1.03719,0.38243,0.33714,7.93201,0.04821
0.179,1.03672,0.38223,0.33696,7.90586,0.04835
0.18,1.03625,0.38204,0.33677,7.87936,0.04849
0.181,1.03578,0.38184,0.33657,7.85426,0.04862
0.182,1.03531,0.38163,0.33638,7.82916,0.04875
0.183,1.03485,0.38143,0.33618,7.80374,0.04888
0.184,1.03438,0.38122,0.33598,7.77808,0.04901
0.185,1.03392,0.38101,0.33578,7.75403,0.04914
0.186,1.03345,0.3808,0.33557,7.72968,0.04926
0.187,1.03299,0.38059,0.33536,7.70502,0.04939
0.188,1.03253,0.38037,0.33515,7.68028,0.04953
0.189,1.03207,0.38015,0.33494,7.65699,0.04965
0.19,1.03161,0.37993,0.33473,7.63341,0.04977
0.191,1.03115,0.37971,0.33451,7.60953,0.0499
0.192,1.03069,0.37949,0.33429,7.58549,0.05003
0.193,1.03023,0.37926,0.33407,7.56297,0.05015
0.194,1.02978,0.37903,0.33385,7.54018,0.05027
0.195,1.02932,0.3788,0.33363,7.51711,0.05039
0.196,1.02887,0.37857,0.3334,7.49376,0.05052
0.197,1.02842,0.37834,0.33318,7.47181,0.05064
0.198,1.02796,0.3781,0.33295,7.44983,0.05075
0.199,1.02751,0.37786,0.33272,7.42758,0.05087
0.2,1.02706,0.37763,0.33248,7.40507,0.051
0.201,1.02661,0.37739,0.33225,7.38333,0.05111
0.202,1.02616,0.37714,0.33201,7.36216,0.05123
0.203,1.02571,0.3769,0.33178,7.34075,0.05134
0.204,1.02526,0.37666,0.33154,7.31909,0.05146
0.205,1.02482,0.37641,0.3313,7.29732,0.05158
0.206,1.02437,0.37616,0.33105,7.27699,0.05169
0.207,1.02393,0.37591,0.33081,7.25642,0.0518
0.208,1.02348,0.37566,0.33056,7.23562,0.05192
0.209,1.02304,0.37541,0.33032,7.21458,0.05203
0.21,1.02259,0.37516,0.33007,7.1941,0.05215
0.211,1.02215,0.3749,0.32982,7.17438,0.05226
0.212,1.02171,0.37465,0.32957,7.15444,0.05237
0.213,1.02127,0.37439,0.32932,7.13429,0.05248
0.214,1.02083,0.37413,0.32906,7.1139,0.05259
0.215,1.02039,0.37387,0.32881,7.09443,0.0527
0.216,1.01995,0.37361,0.32855,7.07536,0.0528
0.217,1.01951,0.37335,0.3283,7.05607,0.05291
0.218,1.01908,0.37309,0.32804,7.03658,0.05302
0.219,1.01864,0.37282,0.32778,7.01688,0.05313
0.22,1.01821,0.37256,0.32752,6.99814,0.05324
0.221,1.01777,0.37229,0.32726,6.97973,0.05334
0.222,1.01734,0.37203,0.327,6.96113,0.05344
0.223,1.0169,0.37176,0.32673,6.94233,0.05355
0.224,1.01647,0.37149,0.32647,6.92333,0.05366
0.225,1.01604,0.37122,0.3262,6.90504,0.05376
0.226,1.01561,0.37095,0.32594,6.88731,0.05386
0.227,1.01518,0.37068,0.32567,6.8694,0.05396
0.228,1.01475,0.37041,0.3254,6.85131,0.05406
0.229,1.01432,0.37014,0.32513,6.83303,0.05417
0.23,1.01389,0.36986,0.32486,6.81493,0.05427
0.231,1.01346,0.36959,0.32459,6.79789,0.05437
0.232,1.01303,0.36931,0.32432,6.78069,0.05447
0.233,1.0126,0.36904,0.32405,6.76332,0.05456
0.234,1.01218,0.36876,0.32377,6.74577,0.05467
0.235,1.01175,0.36849,0.3235,6.72805,0.05477
0.236,1.01133,0.36821,0.32323,6.71125,0.05486
0.237,1.0109,0.36793,0.32295,6.69476,0.05496
0.238,1.01048,0.36765,0.32267,6.67812,0.05505
0.239,1.01005,0.36737,0.3224,6.66131,0.05515
0.24,1.00963,0.36709,0.32212,6.64434,0.05525
0.241,1.00921,0.36681,0.32184,6.62721,0.05535
0.242,1.00879,0.36653,0.32156,6.61139,0.05544
0.243,1.00837,0.36625,0.32128,6.59548,0.05553
0.244,1.00794,0.36597,0.321,6.57941,0.05562
0.245,1.00752,0.36569,0.32072,6.5632,0.05572
0.246,1.00711,0.3654,0.32044,6.54683,0.05581
0.247,1.00669,0.36512,0.32016,6.53034,0.05591
0.248,1.00627,0.36484,0.31988,6.51515,0.056
0.249,1.00585,0.36455,0.3196,6.49983,0.05609
0.25,1.00543,0.36427,0.31931,6.48437,0.05618
0.251,1.00502,0.36398,0.31903,6.46877,0.05627
0.252,1.0046,0.3637,0.31875,6.45303,0.05636
0.253,1.00418,0.36341,0.31846,6.43713,0.05646
0.254,1.00377,0.36313,0.31818,6.42232,0.05654
0.255,1.00335,0.36284,0.31789,6.40761,0.05663
0.256,1.00294,0.36256,0.31761,6.39277,0.05671
0.257,1.00252,0.36227,0.31732,6.37779,0.0568
0.258,1.00211,0.36198,0.31703,6.36269,0.05689
0.259,1.0017,0.3617,0.31675,6.34744,0.05698
0.26,1.00129,0.36141,0.31646,6.33266,0.05707
0.261,1.00087,0.36112,0.31617,6.31857,0.05715
0.262,1.00046,0.36084,0.31589,6.30436,0.05724
0.263,1.00005,0.36055,0.3156,6.29002,0.05732
0.264,0.99964,0.36026,0.31531,6.27556,0.05741
0.265,0.99923,0.35997,0.31502,6.26098,0.05749
0.266,0.99882,0.35969,0.31473,6.24627,0.05758
0.267,0.99841,0.3594,0.31444,6.23246,0.05767
0.268,0.998,0.35911,0.31415,6.21888,0.05774
0.269,0.99759,0.35882,0.31386,6.20519,0.05783
0.27,0.99719,0.35853,0.31357,6.19139,0.05791
0.271,0.99678,0.35824,0.31328,6.17747,0.05799
0.272,0.99637,0.35795,0.31299,6.16343,0.05808
0.273,0.99597,0.35767,0.3127,6.14928,0.05816
0.274,0.99556,0.35738,0.31241,6.13608,0.05824
0.275,0.99515,0.35709,0.31212,6.12304,0.05832
0.276,0.99475,0.3568,0.31183,6.10989,0.0584
0.277,0.99434,0.35651,0.31154,6.09664,0.05848
0.278,0.99394,0.35622,0.31125,6.08328,0.05856
0.279,0.99353,0.35593,0.31096,6.06981,0.05864
0.28,0.99313,0.35564,0.31067,6.05623,0.05872
0.281,0.99273,0.35536,0.31038,6.04328,0.0588
0.282,0.99232,0.35507,0.31009,6.0308,0.05888
0.283,0.99192,0.35478,0.30979,6.01821,0.05895
0.284,0.99152,0.35449,0.3095,6.00552,0.05903
0.285,0.99112,0.3542,0.30921,5.99273,0.0591
0.286,0.99071,0.35391,0.30892,5.97984,0.05918
0.287,0.99031,0.35362,0.30863,5.96685,0.05926
0.288,0.98991,0.35333,0.30834,5.95381,0.05935
0.289,0.98951,0.35305,0.30804,5.94188,0.05942
0.29,0.98911,0.35276,0.30775,5.92986,0.05949
0.291,0.98871,0.35247,0.30746,5.91775,0.05956
0.292,0.98831,0.35218,0.30717,5.90555,0.05964
0.293,0.98791,0.35189,0.30688,5.89325,0.05971
0.294,0.98751,0.35161,0.30659,5.88085,0.05979
0.295,0.98712,0.35132,0.30629,5.86836,0.05987
0.296,0.98672,0.35103,0.306,5.85602,0.05994
0.297,0.98632,0.35074,0.30571,5.84458,0.06001
0.298,0.98592,0.35046,0.30542,5.83304,0.06008
0.299,0.98552,0.35017,0.30513,5.82143,0.06015
0.3,0.98513,0.34988,0.30484,5.80972,0.06022
0.301,0.98473,0.3496,0.30454,5.79793,0.0603
0.302,0.98434,0.34931,0.30425,5.78605,0.06037
0.303,0.98394,0.34902,0.30396,5.77408,0.06045
0.304,0.98354,0.34874,0.30367,5.76205,0.06052
0.305,0.98315,0.34845,0.30338,5.7511,0.06059
0.306,0.98275,0.34817,0.30309,5.74007,0.06066
0.307,0.98236,0.34788,0.3028,5.72897,0.06072
0.308,0.98196,0.3476,0.30251,5.71778,0.06079
0.309,0.98157,0.34731,0.30222,5.70651,0.06086
0.31,0.98118,0.34703,0.30193,5.69516,0.06093
0.311,0.98078,0.34674,0.30164,5.68373,0.06101
0.312,0.98039,0.34646,0.30135,5.67221,0.06108
0.313,0.97999,0.34617,0.30106,5.66118,0.06115
0.314,0.9796,0.34589,0.30077,5.65066,0.06121
0.315,0.97921,0.34561,0.30048,5.64008,0.06128
0.316,0.97882,0.34532,0.30019,5.62942,0.06134
0.317,0.97842,0.34504,0.2999,5.61868,0.06141
0.318,0.97803,0.34476,0.29961,5.60787,0.06148
0.319,0.97764,0.34448,0.29932,5.59698,0.06155
0.32,0.97725,0.34419,0.29903,5.58602,0.06162
0.321,0.97686,0.34391,0.29874,5.57498,0.06169
0.322,0.97647,0.34363,0.29845,5.5645,0.06175
0.323,0.97608,0.34335,0.29816,5.55444,0.06182
0.324,0.97569,0.34307,0.29788,5.54432,0.06188
0.325,0.9753,0.34279,0.29759,5.53412,0.06194
0.326,0.97491,0.34251,0.2973,5.52386,0.06201
0.327,0.97452,0.34223,0.29701,5.51352,0.06207
0.328,0.97413,0.34195,0.29673,5.50311,0.06214
0.329,0.97374,0.34167,0.29644,5.49264,0.06221
0.33,0.97335,0.34139,0.29615,5.48209,0.06227
0.331,0.97296,0.34111,0.29587,5.47175,0.06234
0.332,0.97257,0.34084,0.29558,5.46215,0.0624
0.333,0.97218,0.34056,0.29529,5.4525,0.06246
0.334,0.9718,0.34028,0.29501,5.44278,0.06252
0.335,0.97141,0.34,0.29472,5.433,0.06258
0.336,0.97102,0.33973,0.29444,5.42315,0.06264
0.337,0.97063,0.33945,0.29415,5.41324,0.06271
0.338,0.97024,0.33917,0.29387,5.40326,0.06277
0.339,0.96986,0.3389,0.29358,5.39322,0.06284
0.34,0.96947,0.33862,0.2933,5.38311,0.0629
0.341,0.96908,0.33835,0.29301,5.37347,0.06297
0.342,0.9687,0.33807,0.29273,5.3643,0.06302
0.343,0.96831,0.3378,0.29245,5.35507,0.06308
0.344,0.96792,0.33753,0.29216,5.34577,0.06314
0.345,0.96754,0.33725,0.29188,5.33642,0.0632
0.346,0.96715,0.33698,0.2916,5.32701,0.06326
0.347,0.96677,0.33671,0.29132,5.31754,0.06332
0.348,0.96638,0.33644,0.29103,5.30801,0.06338
0.349,0.966,0.33616,0.29075,5.29842,0.06345
0.35,0.96561,0.33589,0.29047,5.28877,0.06351
0.351,0.96523,0.33562,0.29019,5.27938,0.06357
0.352,0.96484,0.33535,0.28991,5.27064,0.06363
0.353,0.96446,0.33508,0.28963,5.26184,0.06368
0.354,0.96407,0.33481,0.28935,5.25299,0.06374
0.355,0.96369,0.33454,0.28907,5.24409,0.06379
0.356,0.9633,0.33427,0.28879,5.23513,0.06385
0.357,0.96292,0.33401,0.28851,5.22611,0.06391
0.358,0.96253,0.33374,0.28823,5.21704,0.06397
0.359,0.96215,0.33347,0.28795,5.20792,0.06403
0.36,0.96177,0.3332,0.28768,5.19874,0.06409
0.361,0.96138,0.33294,0.2874,5.1895,0.06416
0.362,0.961,0.33267,0.28712,5.18083,0.06421
0.363,0.96062,0.3324,0.28684,5.17248,0.06426
0.364,0.96023,0.33214,0.28657,5.16408,0.06432
0.365,0.95985,0.33187,0.28629,5.15564,0.06437
0.366,0.95947,0.33161,0.28602,5.14714,0.06443
0.367,0.95909,0.33135,0.28574,5.13859,0.06448
0.368,0.9587,0.33108,0.28546,5.12999,0.06454
0.369,0.95832,0.33082,0.28519,5.12134,0.0646
0.37,0.95794,0.33056,0.28492,5.11264,0.06465
0.371,0.95756,0.33029,0.28464,5.10388,0.06471
0.372,0.95717,0.33003,0.28437,5.09508,0.06477
0.373,0.95679,0.32977,0.28409,5.08663,0.06483
0.374,0.95641,0.32951,0.28382,5.07869,0.06488
0.375,0.95603,0.32925,0.28355,5.0707,0.06493
0.376,0.95565,0.32899,0.28328,5.06267,0.06498
0.377,0.95527,0.32873,0.283,5.05459,0.06504
0.378,0.95489,0.32847,0.28273,5.04647,0.06509
0.379,0.9545,0.32821,0.28246,5.0383,0.06514
0.38,0.95412,0.32795,0.28219,5.03008,0.0652
0.381,0.95374,0.3277,0.28192,5.02181,0.06525
0.382,0.95336,0.32744,0.28165,5.0135,0.06531
0.383,0.95298,0.32718,0.28138,5.00514,0.06537
0.384,0.9526,0.32693,0.28111,4.99673,0.06543
0.385,0.95222,0.32667,0.28084,4.9889,0.06548
0.386,0.95184,0.32641,0.28057,4.98134,0.06553
0.387,0.95146,0.32616,0.2803,4.97373,0.06558
0.388,0.95108,0.32591,0.28004,4.96608,0.06563
0.389,0.9507,0.32565,0.27977,4.95839,0.06568
0.39,0.95032,0.3254,0.2795,4.95065,0.06573
0.391,0.94994,0.32515,0.27924,4.94288,0.06578
0.392,0.94956,0.32489,0.27897,4.93506,0.06583
0.393,0.94918,0.32464,0.2787,4.92719,0.06589
0.394,0.9488,0.32439,0.27844,4.91929,0.06594
0.395,0.94842,0.32414,0.27817,4.91134,0.066
0.396,0.94804,0.32389,0.27791,4.90334,0.06605
0.397,0.94766,0.32364,0.27764,4.8956,0.06611
0.398,0.94728,0.32339,0.27738,4.88842,0.06615
0.399,0.9469,0.32314,0.27712,4.8812,0.0662
0.4,0.94652,0.32289,0.27685,4.87395,0.06625
0.401,0.94614,0.32264,0.27659,4.86666,0.0663
0.402,0.94576,0.32239,0.27633,4.85933,0.06635
0.403,0.94538,0.32215,0.27607,4.85196,0.0664
0.404,0.94501,0.3219,0.27581,4.84455,0.06645
0.405,0.94463,0.32165,0.27555,4.8371,0.0665
0.406,0.94425,0.32141,0.27528,4.82961,0.06655
0.407,0.94387,0.32116,0.27502,4.82208,0.0666
0.408,0.94349,0.32092,0.27477,4.81451,0.06666
0.409,0.94311,0.32067,0.27451,4.8069,0.06671
0.41,0.94273,0.32043,0.27425,4.79955,0.06676
0.411,0.94235,0.32019,0.27399,4.79274,0.06681
0.412,0.94198,0.31995,0.27373,4.78589,0.06685
0.413,0.9416,0.3197,0.27347,4.779,0.0669
0.414,0.94122,0.31946,0.27322,4.77208,0.06694
0.415,0.94084,0.31922,0.27296,4.76512,0.06699
0.416,0.94046,0.31898,0.2727,4.75813,0.06704
0.417,0.94008,0.31874,0.27245,4.7511,0.06709
0.418,0.93971,0.3185,0.27219,4.74404,0.06714
0.419,0.93933,0.31826,0.27194,4.73694,0.06719
0.42,0.93895,0.31802,0.27168,4.72981,0.06724
0.421,0.93857,0.31778,0.27143,4.72263,0.06729
0.422,0.93819,0.31755,0.27117,4.71542,0.06734
0.423,0.93782,0.31731,0.27092,4.70817,0.0674
0.424,0.93744,0.31707,0.27067,4.70147,0.06744
0.425,0.93706,0.31683,0.27042,4.69499,0.06748
0.426,0.93668,0.3166,0.27016,4.68848,0.06753
0.427,0.9363,0.31636,0.26991,4.68195,0.06757
