phi0,omega,M,Q,R_eff,C_eff
0,0.577350269,0,0,,0
0.00075,0.57732,0.07832,0.1357,217.17526,0.00036
0.0015,0.57719,0.11601,0.20129,207.08567,0.00056
0.00225,0.57704,0.14661,0.25421,190.66727,0.00077
0.003,0.57688,0.16855,0.29209,170.89445,0.00099
0.00375,0.5767,0.18757,0.32512,153.87748,0.00122
0.0045,0.57652,0.20441,0.3544,140.70244,0.00145
0.00525,0.57634,0.21974,0.38094,130.36396,0.00169
0.006,0.57615,0.23373,0.40524,121.89015,0.00192
0.00675,0.57596,0.24666,0.42771,114.85395,0.00215
0.0075,0.57578,0.25869,0.44863,108.89414,0.00238
0.00825,0.57559,0.26996,0.46823,103.76256,0.0026
0.009,0.5754,0.28055,0.48666,99.28374,0.00283
0.00975,0.57521,0.29055,0.50406,95.32996,0.00305
0.0105,0.57502,0.30002,0.52055,91.80588,0.00327
0.01125,0.57483,0.30901,0.53621,88.63865,0.00349
0.012,0.57464,0.31757,0.55112,85.7718,0.0037
0.01275,0.57445,0.32573,0.56535,83.16049,0.00392
0.0135,0.57426,0.33353,0.57894,80.76872,0.00413
0.01425,0.57407,0.34099,0.59196,78.56733,0.00434
0.015,0.57388,0.34814,0.60443,76.53222,0.00455
0.01575,0.5737,0.355,0.6164,74.64342,0.00476
0.0165,0.57351,0.36158,0.62791,72.88406,0.00496
0.01725,0.57332,0.36792,0.63897,71.24011,0.00516
0.018,0.57313,0.37402,0.64963,69.69927,0.00537
0.01875,0.57295,0.37989,0.6599,68.2512,0.00557
0.0195,0.57276,0.38555,0.6698,66.88691,0.00576
0.02025,0.57258,0.39101,0.67935,65.59858,0.00596
0.021,0.57239,0.39629,0.68858,64.37953,0.00616
0.02175,0.57221,0.40138,0.69749,63.22348,0.00635
0.0225,0.57203,0.4063,0.70611,62.12535,0.00654
0.02325,0.57184,0.41106,0.71445,61.08047,0.00673
0.024,0.57166,0.41566,0.72251,60.08448,0.00692
0.02475,0.57148,0.42012,0.73032,59.13383,0.0071
0.0255,0.5713,0.42443,0.73789,58.22502,0.00729
0.02625,0.57112,0.42861,0.74522,57.35523,0.00747
0.027,0.57094,0.43266,0.75232,56.52157,0.00765
0.02775,0.57076,0.43658,0.7592,55.72168,0.00784
0.0285,0.57058,0.44038,0.76588,54.9533,0.00801
0.02925,0.57041,0.44407,0.77236,54.21448,0.00819
0.03,0.57023,0.44765,0.77864,53.50317,0.00837
0.03075,0.57005,0.45112,0.78474,52.81789,0.00854
0.0315,0.56988,0.45449,0.79066,52.1571,0.00871
0.03225,0.5697,0.45775,0.79641,51.51929,0.00889
0.033,0.56953,0.46093,0.80199,50.90311,0.00905
0.03375,0.56936,0.46401,0.80741,50.3074,0.00922
0.0345,0.56918,0.467,0.81268,49.73108,0.00939
0.03525,0.56901,0.4699,0.8178,49.17297,0.00956
0.036,0.56884,0.47273,0.82277,48.63243,0.00972
0.03675,0.56867,0.47547,0.8276,48.10826,0.00988
0.0375,0.5685,0.47813,0.83229,47.59977,0.01004
0.03825,0.56833,0.48072,0.83685,47.1062,0.0102
0.039,0.56816,0.48323,0.84129,46.62672,0.01036
0.03975,0.568,0.48568,0.8456,46.16086,0.01052
0.0405,0.56783,0.48805,0.84979,45.70773,0.01068
0.04125,0.56766,0.49036,0.85386,45.26709,0.01083
0.042,0.5675,0.4926,0.85782,44.83814,0.01099
0.04275,0.56733,0.49478,0.86167,44.42038,0.01114
0.0435,0.56717,0.4969,0.86541,44.01332,0.01129
0.04425,0.567,0.49896,0.86905,43.61672,0.01144
0.045,0.56684,0.50096,0.87259,43.22991,0.01159
0.04575,0.56668,0.5029,0.87603,42.85253,0.01174
0.0465,0.56652,0.50479,0.87937,42.4842,0.01188
0.04725,0.56635,0.50663,0.88262,42.12473,0.01203
0.048,0.56619,0.50841,0.88578,41.77357,0.01217
0.04875,0.56603,0.51015,0.88885,41.43046,0.01231
0.0495,0.56587,0.51183,0.89183,41.0951,0.01245
0.05025,0.56572,0.51347,0.89473,40.76721,0.0126
0.051,0.56556,0.51506,0.89755,40.44645,0.01273
0.05175,0.5654,0.5166,0.90029,40.13266,0.01287
0.0525,0.56524,0.5181,0.90295,39.82568,0.01301
0.05325,0.56509,0.51956,0.90554,39.52493,0.01315
0.054,0.56493,0.52098,0.90805,39.23065,0.01328
0.05475,0.56478,0.52235,0.91049,38.94213,0.01341
0.0555,0.56462,0.52369,0.91285,38.65966,0.01355
0.05625,0.56447,0.52498,0.91515,38.38273,0.01368
0.057,0.56431,0.52624,0.91739,38.11116,0.01381
0.05775,0.56416,0.52746,0.91955,37.84483,0.01394
0.0585,0.56401,0.52864,0.92166,37.5836,0.01407
0.05925,0.56386,0.52979,0.9237,37.32737,0.01419
0.06,0.56371,0.5309,0.92568,37.07588,0.01432
0.06075,0.56356,0.53198,0.9276,36.8291,0.01444
0.0615,0.56341,0.53303,0.92946,36.58681,0.01457
0.06225,0.56326,0.53404,0.93126,36.34885,0.01469
0.063,0.56311,0.53502,0.93301,36.11507,0.01481
0.06375,0.56296,0.53597,0.9347,35.88527,0.01494
0.0645,0.56281,0.5369,0.93634,35.65967,0.01506
0.06525,0.56266,0.53779,0.93793,35.43787,0.01518
0.066,0.56252,0.53865,0.93947,35.21968,0.01529
0.06675,0.56237,0.53948,0.94095,35.00539,0.01541
0.0675,0.56223,0.54029,0.94239,34.79438,0.01553
0.06825,0.56208,0.54107,0.94378,34.58711,0.01564
0.069,0.56194,0.54182,0.94513,34.38299,0.01576
0.06975,0.56179,0.54255,0.94642,34.1822,0.01587
0.0705,0.56165,0.54325,0.94768,33.98468,0.01599
0.07125,0.56151,0.54393,0.94889,33.7901,0.0161
0.072,0.56136,0.54458,0.95005,33.59857,0.01621
0.07275,0.56122,0.54521,0.95118,33.41013,0.01632
0.0735,0.56108,0.54582,0.95226,33.22449,0.01643
0.07425,0.56094,0.5464,0.9533,33.04159,0.01654
0.075,0.5608,0.54696,0.9543,32.8614,0.01664
0.07575,0.56066,0.5475,0.95527,32.68386,0.01675
0.0765,0.56052,0.54802,0.95619,32.50891,0.01686
0.07725,0.56038,0.54852,0.95708,32.33652,0.01696
0.078,0.56024,0.54899,0.95793,32.16661,0.01707
0.07875,0.5601,0.54945,0.95875,31.99914,0.01717
0.0795,0.55997,0.54989,0.95953,31.83404,0.01727
0.08025,0.55983,0.5503,0.96028,31.67125,0.01738
0.081,0.55969,0.5507,0.96099,31.51071,0.01748
0.08175,0.55956,0.55108,0.96167,31.35235,0.01758
0.0825,0.55942,0.55144,0.96232,31.19612,0.01768
0.08325,0.55929,0.55179,0.96294,31.04193,0.01778
0.084,0.55915,0.55211,0.96352,30.88972,0.01787
0.08475,0.55902,0.55242,0.96408,30.73967,0.01797
0.0855,0.55888,0.55272,0.96461,30.59163,0.01807
0.08625,0.55875,0.55299,0.9651,30.4454,0.01816
0.087,0.55862,0.55325,0.96557,30.30091,0.01826
0.08775,0.55848,0.5535,0.96601,30.15855,0.01835
0.0885,0.55835,0.55373,0.96642,30.01788,0.01845
0.08925,0.55822,0.55394,0.9668,29.87876,0.01854
0.09,0.55809,0.55414,0.96716,29.74172,0.01863
0.09075,0.55796,0.55433,0.96749,29.60616,0.01872
0.0915,0.55783,0.5545,0.9678,29.47225,0.01881
0.09225,0.5577,0.55465,0.96808,29.34008,0.0189
0.093,0.55757,0.55479,0.96834,29.20927,0.01899
0.09375,0.55744,0.55492,0.96857,29.08032,0.01908
0.0945,0.55731,0.55504,0.96878,28.95256,0.01917
0.09525,0.55718,0.55514,0.96896,28.82666,0.01926
0.096,0.55705,0.55523,0.96913,28.70189,0.01934
0.09675,0.55692,0.55531,0.96927,28.57885,0.01943
0.0975,0.55679,0.55538,0.96938,28.45701,0.01952
0.09825,0.55667,0.55543,0.96948,28.33666,0.0196
0.099,0.55654,0.55547,0.96956,28.21767,0.01969
0.09975,0.55641,0.5555,0.96961,28.09981,0.01977
0.1005,0.55629,0.55552,0.96965,27.9836,0.01985
0.10125,0.55616,0.55553,0.96966,27.86844,0.01993
0.102,0.55604,0.55553,0.96965,27.75454,0.02002
0.10275,0.55591,0.55551,0.96963,27.64206,0.0201
0.1035,0.55579,0.55549,0.96959,27.5306,0.02018
0.10425,0.55566,0.55545,0.96952,27.4203,0.02026
0.105,0.55554,0.55541,0.96944,27.31142,0.02034
0.10575,0.55542,0.55536,0.96934,27.20355,0.02041
0.1065,0.55529,0.55529,0.96923,27.09668,0.02049
0.10725,0.55517,0.55522,0.9691,26.99106,0.02057
0.108,0.55505,0.55513,0.96894,26.88662,0.02065
0.10875,0.55492,0.55504,0.96878,26.78316,0.02072
0.1095,0.5548,0.55494,0.96859,26.68066,0.0208
0.11025,0.55468,0.55483,0.9684,26.57914,0.02087
0.111,0.55456,0.55471,0.96818,26.47892,0.02095
0.11175,0.55444,0.55458,0.96795,26.37963,0.02102
0.1125,0.55432,0.55445,0.9677,26.28127,0.0211
0.11325,0.5542,0.5543,0.96744,26.18383,0.02117
0.114,0.55408,0.55415,0.96717,26.08732,0.02124
0.11475,0.55396,0.55399,0.96688,25.99171,0.02131
0.1155,0.55384,0.55382,0.96657,25.89712,0.02139
0.11625,0.55372,0.55365,0.96626,25.80351,0.02146
0.117,0.5536,0.55346,0.96593,25.71077,0.02153
0.11775,0.55348,0.55327,0.96558,25.61888,0.0216
0.1185,0.55336,0.55308,0.96522,25.52785,0.02167
0.11925,0.55325,0.55287,0.96485,25.43766,0.02173
0.12,0.55313,0.55266,0.96447,25.34829,0.0218
0.12075,0.55301,0.55244,0.96407,25.25975,0.02187
0.1215,0.55289,0.55222,0.96367,25.17202,0.02194
0.12225,0.55278,0.55199,0.96325,25.08509,0.022
0.123,0.55266,0.55175,0.96281,24.99894,0.02207
0.12375,0.55255,0.5515,0.96237,24.91358,0.02214
0.1245,0.55243,0.55125,0.96192,24.82898,0.0222
0.12525,0.55231,0.551,0.96145,24.74514,0.02227
0.126,0.5522,0.55073,0.96097,24.66204,0.02233
0.12675,0.55208,0.55047,0.96049,24.57967,0.0224
0.1275,0.55197,0.55019,0.95999,24.49803,0.02246
0.12825,0.55185,0.54991,0.95948,24.41709,0.02252
0.129,0.55174,0.54963,0.95896,24.33684,0.02258
0.12975,0.55162,0.54934,0.95843,24.25728,0.02265
0.1305,0.55151,0.54904,0.9579,24.17839,0.02271
0.13125,0.5514,0.54874,0.95735,24.10015,0.02277
0.132,0.55128,0.54843,0.95679,24.02256,0.02283
0.13275,0.55117,0.54812,0.95622,23.9456,0.02289
0.1335,0.55106,0.5478,0.95565,23.86925,0.02295
0.13425,0.55095,0.54748,0.95506,23.79369,0.02301
0.135,0.55083,0.54716,0.95447,23.71876,0.02307
0.13575,0.55072,0.54683,0.95387,23.64443,0.02313
0.1365,0.55061,0.54649,0.95326,23.57067,0.02319
0.13725,0.5505,0.54615,0.95264,23.49748,0.02324
0.138,0.55039,0.54581,0.95201,23.42484,0.0233
0.13875,0.55027,0.54546,0.95138,23.35273,0.02336
0.1395,0.55016,0.5451,0.95073,23.28122,0.02341
0.14025,0.55005,0.54475,0.95008,23.21047,0.02347
0.141,0.54994,0.54439,0.94943,23.14023,0.02353
0.14175,0.54983,0.54402,0.94876,23.07049,0.02358
0.1425,0.54972,0.54365,0.94809,23.00122,0.02364
0.14325,0.54961,0.54328,0.94741,22.93241,0.02369
0.144,0.5495,0.5429,0.94672,22.86427,0.02374
0.14475,0.54939,0.54252,0.94603,22.79677,0.0238
0.1455,0.54928,0.54214,0.94532,22.72969,0.02385
0.14625,0.54917,0.54175,0.94462,22.66303,0.0239
0.147,0.54906,0.54136,0.9439,22.59677,0.02396
0.14775,0.54896,0.54097,0.94318,22.53127,0.02401
0.1485,0.54885,0.54057,0.94246,22.46626,0.02406
0.14925,0.54874,0.54017,0.94172,22.40162,0.02411
0.15,0.54863,0.53976,0.94099,22.33733,0.02416
0.15075,0.54852,0.53935,0.94024,22.27367,0.02421
0.1515,0.54841,0.53894,0.93949,22.21058,0.02427
0.15225,0.54831,0.53853,0.93873,22.14783,0.02432
0.153,0.5482,0.53811,0.93797,22.08537,0.02437
0.15375,0.54809,0.53769,0.9372,22.02359,0.02441
0.1545,0.54799,0.53727,0.93643,21.9623,0.02446
0.15525,0.54788,0.53685,0.93565,21.90128,0.02451
0.156,0.54777,0.53642,0.93487,21.84056,0.02456
0.15675,0.54767,0.53599,0.93408,21.78066,0.02461
0.1575,0.54756,0.53555,0.93329,21.72101,0.02466
0.15825,0.54745,0.53512,0.93249,21.66159,0.0247
0.159,0.54735,0.53468,0.93169,21.60282,0.02475
0.15975,0.54724,0.53424,0.93088,21.54448,0.0248
0.1605,0.54713,0.5338,0.93007,21.48632,0.02484
0.16125,0.54703,0.53335,0.92925,21.42867,0.02489
0.162,0.54692,0.5329,0.92843,21.37156,0.02494
0.16275,0.54682,0.53245,0.92761,21.3146,0.02498
0.1635,0.54671,0.532,0.92678,21.25809,0.02503
0.16425,0.54661,0.53155,0.92594,21.20214,0.02507
0.165,0.5465,0.53109,0.92511,21.14632,0.02511
0.16575,0.5464,0.53063,0.92426,21.09096,0.02516
0.1665,0.54629,0.53017,0.92342,21.03612,0.0252
0.16725,0.54619,0.52971,0.92257,20.98136,0.02525
0.168,0.54609,0.52924,0.92172,20.92718,0.02529
0.16875,0.54598,0.52878,0.92086,20.87336,0.02533
0.1695,0.54588,0.52831,0.92,20.8196,0.02538
0.17025,0.54577,0.52784,0.91914,20.7666,0.02542
0.171,0.54567,0.52736,0.91827,20.71374,0.02546
0.17175,0.54557,0.52689,0.9174,20.66108,0.0255
0.1725,0.54546,0.52641,0.91652,20.6091,0.02554
0.17325,0.54536,0.52594,0.91565,20.55712,0.02558
0.174,0.54526,0.52546,0.91477,20.50568,0.02563
0.17475,0.54515,0.52498,0.91388,20.45454,0.02567
0.1755,0.54505,0.5245,0.913,20.40346,0.02571
0.17625,0.54495,0.52401,0.91211,20.35316,0.02575
0.177,0.54485,0.52353,0.91122,20.30279,0.02579
0.17775,0.54474,0.52304,0.91032,20.25295,0.02583
0.1785,0.54464,0.52255,0.90942,20.20337,0.02586
0.17925,0.54454,0.52206,0.90852,20.15391,0.0259
0.18,0.54444,0.52157,0.90762,20.10511,0.02594
0.18075,0.54434,0.52108,0.90671,20.05619,0.02598
0.1815,0.54423,0.52059,0.90581,20.00798,0.02602
0.18225,0.54413,0.52009,0.9049,19.95979,0.02606
0.183,0.54403,0.5196,0.90398,19.91198,0.02609
0.18375,0.54393,0.5191,0.90307,19.8645,0.02613
0.1845,0.54383,0.5186,0.90215,19.81711,0.02617
0.18525,0.54373,0.51811,0.90123,19.77031,0.02621
0.186,0.54363,0.51761,0.90031,19.72334,0.02624
0.18675,0.54352,0.5171,0.89939,19.67721,0.02628
0.1875,0.54342,0.5166,0.89846,19.63087,0.02632
0.18825,0.54332,0.5161,0.89753,19.58518,0.02635
0.189,0.54322,0.5156,0.8966,19.53946,0.02639
0.18975,0.54312,0.51509,0.89567,19.4942,0.02642
0.1905,0.54302,0.51459,0.89474,19.44909,0.02646
0.19125,0.54292,0.51408,0.8938,19.40427,0.02649
0.192,0.54282,0.51357,0.89286,19.35974,0.02653
0.19275,0.54272,0.51306,0.89192,19.31537,0.02656
0.1935,0.54262,0.51255,0.89098,19.2714,0.0266
0.19425,0.54252,0.51204,0.89004,19.22748,0.02663
0.195,0.54242,0.51153,0.8891,19.18405,0.02666
0.19575,0.54232,0.51102,0.88815,19.14059,0.0267
0.1965,0.54222,0.51051,0.88721,19.09767,0.02673
0.19725,0.54212,0.51,0.88626,19.05467,0.02676
0.198,0.54202,0.50948,0.88531,19.01226,0.0268
0.19875,0.54192,0.50897,0.88436,18.96972,0.02683
0.1995,0.54182,0.50845,0.88341,18.92778,0.02686
0.20025,0.54172,0.50794,0.88245,18.88571,0.0269
0.201,0.54162,0.50742,0.8815,18.84422,0.02693
0.20175,0.54152,0.50691,0.88054,18.80263,0.02696
0.2025,0.54142,0.50639,0.87959,18.76157,0.02699
0.20325,0.54132,0.50587,0.87863,18.72046,0.02702
0.204,0.54122,0.50535,0.87767,18.6798,0.02705
0.20475,0.54112,0.50484,0.87671,18.63917,0.02708
0.2055,0.54103,0.50432,0.87575,18.5989,0.02712
0.20625,0.54093,0.5038,0.87479,18.55876,0.02715
0.207,0.54083,0.50328,0.87382,18.51884,0.02718
0.20775,0.54073,0.50276,0.87286,18.47919,0.02721
0.2085,0.54063,0.50224,0.8719,18.43961,0.02724
0.20925,0.54053,0.50172,0.87093,18.40046,0.02727
0.21,0.54043,0.5012,0.86996,18.3612,0.0273
0.21075,0.54034,0.50068,0.869,18.32253,0.02733
0.2115,0.54024,0.50015,0.86803,18.28356,0.02736
0.21225,0.54014,0.49963,0.86706,18.2454,0.02738
0.213,0.54004,0.49911,0.86609,18.20692,0.02741
0.21375,0.53994,0.49859,0.86512,18.16904,0.02744
0.2145,0.53984,0.49806,0.86415,18.13106,0.02747
0.21525,0.53975,0.49754,0.86318,18.09342,0.0275
0.216,0.53965,0.49702,0.86221,18.05595,0.02753
0.21675,0.53955,0.4965,0.86124,18.01853,0.02755
0.2175,0.53945,0.49597,0.86027,17.98157,0.02758
0.21825,0.53935,0.49545,0.85929,17.94435,0.02761
0.219,0.53926,0.49493,0.85832,17.9079,0.02764
0.21975,0.53916,0.4944,0.85735,17.87116,0.02766
0.2205,0.53906,0.49388,0.85637,17.83491,0.02769
0.22125,0.53896,0.49335,0.8554,17.79869,0.02772
0.222,0.53886,0.49283,0.85443,17.76259,0.02775
0.22275,0.53877,0.49231,0.85345,17.72688,0.02777
0.2235,0.53867,0.49178,0.85248,17.69091,0.0278
0.22425,0.53857,0.49126,0.8515,17.65572,0.02782
0.225,0.53847,0.49073,0.85053,17.62025,0.02785
0.22575,0.53838,0.49021,0.84955,17.58517,0.02788
0.2265,0.53828,0.48969,0.84858,17.55023,0.0279
0.22725,0.53818,0.48916,0.8476,17.51523,0.02793
0.228,0.53808,0.48864,0.84662,17.48081,0.02795
0.22875,0.53799,0.48811,0.84565,17.44612,0.02798
0.2295,0.53789,0.48759,0.84467,17.41196,0.028
0.23025,0.53779,0.48707,0.8437,17.3778,0.02803
0.231,0.53769,0.48654,0.84272,17.34366,0.02805
0.23175,0.5376,0.48602,0.84174,17.31003,0.02808
0.2325,0.5375,0.4855,0.84077,17.27614,0.0281
0.23325,0.5374,0.48497,0.83979,17.24279,0.02813
0.234,0.5373,0.48445,0.83882,17.20943,0.02815
0.23475,0.53721,0.48393,0.83784,17.17605,0.02817
0.2355,0.53711,0.4834,0.83687,17.14322,0.0282
0.23625,0.53701,0.48288,0.83589,17.11015,0.02822
0.237,0.53692,0.48236,0.83492,17.0775,0.02825
0.23775,0.53682,0.48184,0.83394,17.04496,0.02827
0.2385,0.53672,0.48132,0.83297,17.01224,0.02829
0.23925,0.53663,0.48079,0.83199,16.98023,0.02831
0.24,0.53653,0.48027,0.83102,16.94798,0.02834
0.24075,0.53643,0.47975,0.83004,16.91593,0.02836
0.2415,0.53633,0.47923,0.82907,16.88422,0.02838
0.24225,0.53624,0.47871,0.8281,16.85228,0.02841
0.243,0.53614,0.47819,0.82712,16.82087,0.02843
0.24375,0.53604,0.47767,0.82615,16.78946,0.02845
0.2445,0.53595,0.47715,0.82518,16.7579,0.02847
0.24525,0.53585,0.47663,0.8242,16.72703,0.02849
0.246,0.53575,0.47611,0.82323,16.69594,0.02852
0.24675,0.53566,0.47559,0.82226,16.66496,0.02854
0.2475,0.53556,0.47507,0.82129,16.63441,0.02856
0.24825,0.53546,0.47455,0.82032,16.60363,0.02858
0.249,0.53536,0.47403,0.81935,16.57321,0.0286
0.24975,0.53527,0.47351,0.81838,16.54297,0.02862
0.2505,0.53517,0.473,0.81741,16.51252,0.02864
0.25125,0.53507,0.47248,0.81644,16.48263,0.02867
0.252,0.53498,0.47196,0.81547,16.45272,0.02869
0.25275,0.53488,0.47145,0.81451,16.42259,0.02871
0.2535,0.53478,0.47093,0.81354,16.39319,0.02873
0.25425,0.53469,0.47041,0.81257,16.36362,0.02875
0.255,0.53459,0.4699,0.81161,16.33393,0.02877
0.25575,0.53449,0.46938,0.81064,16.30489,0.02879
0.2565,0.5344,0.46887,0.80968,16.27565,0.02881
0.25725,0.5343,0.46835,0.80871,16.24641,0.02883
0.258,0.5342,0.46784,0.80775,16.2177,0.02885
0.25875,0.53411,0.46733,0.80678,16.18881,0.02887
0.2595,0.53401,0.46681,0.80582,16.15996,0.02889
0.26025,0.53391,0.4663,0.80486,16.13161,0.02891
0.261,0.53382,0.46579,0.8039,16.10305,0.02893
0.26175,0.53372,0.46528,0.80294,16.07459,0.02894
0.2625,0.53362,0.46477,0.80198,16.04658,0.02896
0.26325,0.53352,0.46426,0.80102,16.01838,0.02898
0.264,0.53343,0.46375,0.80006,15.99026,0.029
0.26475,0.53333,0.46324,0.7991,15.9626,0.02902
0.2655,0.53323,0.46273,0.79815,15.93475,0.02904
0.26625,0.53314,0.46222,0.79719,15.90694,0.02906
0.267,0.53304,0.46171,0.79623,15.87964,0.02908
0.26775,0.53294,0.4612,0.79528,15.85215,0.02909
0.2685,0.53285,0.46069,0.79433,15.82463,0.02911
0.26925,0.53275,0.46019,0.79337,15.79768,0.02913
0.27,0.53265,0.45968,0.79242,15.77055,0.02915
0.27075,0.53255,0.45918,0.79147,15.74329,0.02917
0.2715,0.53246,0.45867,0.79052,15.7167,0.02918
0.27225,0.53236,0.45817,0.78957,15.68994,0.0292
0.273,0.53226,0.45766,0.78862,15.663,0.02922
0.27375,0.53217,0.45716,0.78767,15.63667,0.02924
0.2745,0.53207,0.45665,0.78672,15.61028,0.02925
0.27525,0.53197,0.45615,0.78577,15.58371,0.02927
0.276,0.53187,0.45565,0.78483,15.55757,0.02929
0.27675,0.53178,0.45515,0.78388,15.53155,0.0293
0.2775,0.53168,0.45465,0.78294,15.50536,0.02932
0.27825,0.53158,0.45415,0.782,15.47938,0.02934
0.279,0.53149,0.45365,0.78105,15.45373,0.02936
0.27975,0.53139,0.45315,0.78011,15.42791,0.02937
0.2805,0.53129,0.45265,0.77917,15.40206,0.02939
0.28125,0.53119,0.45215,0.77823,15.37678,0.0294
0.282,0.5311,0.45165,0.77729,15.35134,0.02942
0.28275,0.531,0.45116,0.77636,15.32574,0.02944
0.2835,0.5309,0.45066,0.77542,15.30069,0.02945
0.28425,0.5308,0.45016,0.77448,15.27563,0.02947
0.285,0.53071,0.44967,0.77355,15.25041,0.02949
0.28575,0.53061,0.44917,0.77261,15.22542,0.0295
0.2865,0.53051,0.44868,0.77168,15.20075,0.02952
0.28725,0.53041,0.44819,0.77075,15.17591,0.02953
0.288,0.53032,0.44769,0.76982,15.15096,0.02955
0.28875,0.53022,0.4472,0.76889,15.12666,0.02956
0.2895,0.53012,0.44671,0.76796,15.10222,0.02958
0.29025,0.53002,0.44622,0.76703,15.07762,0.02959
0.291,0.52993,0.44573,0.7661,15.05335,0.02961
0.29175,0.52983,0.44524,0.76518,15.02929,0.02962
0.2925,0.52973,0.44475,0.76425,15.00508,0.02964
0.29325,0.52963,0.44426,0.76333,14.98079,0.02966
0.294,0.52953,0.44377,0.7624,14.95712,0.02967
0.29475,0.52944,0.44329,0.76148,14.9333,0.02968
0.2955,0.52934,0.4428,0.76056,14.90933,0.0297
0.29625,0.52924,0.44231,0.75964,14.88566,0.02971
0.297,0.52914,0.44183,0.75872,14.86223,0.02973
0.29775,0.52904,0.44134,0.7578,14.83866,0.02974
0.2985,0.52895,0.44086,0.75689,14.81494,0.02976
0.29925,0.52885,0.44038,0.75597,14.79185,0.02977
0.3,0.52875,0.43989,0.75506,14.76868,0.02979
0.30075,0.52865,0.43941,0.75414,14.74536,0.0298
0.3015,0.52855,0.43893,0.75323,14.72214,0.02981
0.30225,0.52845,0.43845,0.75232,14.69936,0.02983
0.303,0.52836,0.43797,0.75141,14.67644,0.02984
0.30375,0.52826,0.43749,0.7505,14.65339,0.02986
0.3045,0.52816,0.43701,0.74959,14.63067,0.02987
0.30525,0.52806,0.43653,0.74868,14.60815,0.02988
0.306,0.52796,0.43606,0.74778,14.5855,0.0299
0.30675,0.52786,0.43558,0.74687,14.56271,0.02991
