phi0,omega,M,Q,R_eff,C_eff
0,0.866025404,0,0,,0
0.0003,0.865988434,0.037761484,0.045159393,245.235817,0.00015398
0.0006,0.865898843,0.054572059,0.06327838,224.6658085,0.000242903
0.0009,0.865776748,0.067385897,0.077840445,194.0081376,0.000347335
0.0012,0.865659118,0.078866511,0.09096236,173.8827196,0.000453562
0.0015,0.865532287,0.08671338,0.100879071,153.0826803,0.000566448
0.0018,0.865392024,0.095196219,0.110188358,137.4494279,0.000692591
0.0021,0.865254509,0.102850132,0.118818086,128.3444061,0.000801361
0.0024,0.865120801,0.109872933,0.126907268,120.1831034,0.000914213
0.0027,0.864983118,0.116452268,0.13457076,113.110276,0.001029546
0.003,0.864845076,0.122664548,0.141728097,107.3019565,0.001143172
0.0033,0.864705416,0.12857986,0.148571872,102.2881894,0.001257035
0.0036,0.86456489,0.134222623,0.155101427,97.91551796,0.0013708
0.0039,0.8644236,0.139625532,0.16135464,94.05623435,0.00148449
0.0042,0.864281644,0.144815578,0.167362603,90.61752247,0.001598097
0.0045,0.864139098,0.149814908,0.173150864,87.52813899,0.00171162
0.0048,0.863996028,0.154642038,0.178740786,84.73267153,0.001825058
0.0051,0.863852486,0.159312643,0.184150448,82.18704811,0.001938415
0.0054,0.863708521,0.163840129,0.189395313,79.85622521,0.002051689
0.0057,0.863564171,0.168236068,0.19448873,77.71158217,0.002164878
0.006,0.863419473,0.172510536,0.199442317,75.72948533,0.002277984
0.0063,0.863274457,0.176672367,0.204266262,73.89034187,0.002391008
0.0066,0.863129149,0.180729359,0.208969559,72.17771308,0.00250395
0.0069,0.862983574,0.184688439,0.213560192,70.57780354,0.002616806
0.0072,0.862837754,0.188555791,0.218045293,69.07864951,0.002729581
0.0075,0.862691707,0.192336964,0.222431257,67.67009447,0.002842274
0.0078,0.862545451,0.19603696,0.226723852,66.34335603,0.002954885
0.0081,0.862399003,0.199660308,0.230928297,65.09082203,0.003067411
0.0084,0.862252375,0.203211123,0.235049337,63.9058178,0.003179853
0.0087,0.862105582,0.206693157,0.239091295,62.78235633,0.003292217
0.009,0.861958634,0.210109846,0.243058131,61.71544363,0.003404494
0.0093,0.861811544,0.213464341,0.246953475,60.70031602,0.003516692
0.0096,0.861664321,0.216759543,0.250780672,59.73306172,0.003628804
0.0099,0.861516974,0.219998132,0.254542807,58.80990114,0.003740835
0.0102,0.861369513,0.223182584,0.258242735,57.92754088,0.003852789
0.0105,0.861221944,0.226315199,0.261883104,57.08322603,0.003964653
0.0108,0.861074276,0.229398113,0.265466375,56.27410175,0.004076442
0.0111,0.860926516,0.232433317,0.268994841,55.4979771,0.00418814
0.0114,0.860778669,0.235422669,0.272470643,54.75248807,0.004299762
0.0117,0.860630742,0.238367907,0.27589578,54.03575119,0.0044113
0.012,0.860482741,0.241270659,0.279272129,53.34587972,0.004522761
0.0123,0.86033467,0.244132452,0.282601448,52.68132292,0.004634137
0.0126,0.860186536,0.246954723,0.28588539,52.04062566,0.004745422
0.0129,0.860038342,0.249738823,0.289125512,51.42217854,0.004856636
0.0132,0.859890093,0.252486027,0.292323281,50.82491663,0.004967761
0.0135,0.859741793,0.255197538,0.295480082,50.24751014,0.00507881
0.0138,0.859593447,0.257874493,0.298597224,49.68889325,0.005189781
0.0141,0.859445057,0.260517969,0.301675946,49.14825915,0.005300655
0.0144,0.859296627,0.263128987,0.304717422,48.6244058,0.005411459
0.0147,0.859148162,0.265708514,0.307722766,48.11657501,0.005522183
0.015,0.858999663,0.268257469,0.310693036,47.62401833,0.005632819
0.0153,0.858851134,0.270776727,0.313629238,47.14593332,0.005743374
0.0156,0.858702578,0.27326712,0.316532328,46.68147165,0.005853867
0.0159,0.858553998,0.275729441,0.319403219,46.23040001,0.005964245
0.0162,0.858405396,0.278164445,0.32224278,45.79169618,0.006074561
0.0165,0.858256775,0.280572854,0.325051842,45.36491912,0.006184798
0.0168,0.858108137,0.282955358,0.327831196,44.94959122,0.006294948
0.0171,0.857959484,0.285312615,0.330581602,44.54520216,0.006405013
0.0174,0.857810819,0.287645257,0.333303783,44.15121289,0.006515002
0.0177,0.857662144,0.289953888,0.335998435,43.76709559,0.006624929
0.018,0.85751346,0.292239085,0.338666224,43.39280625,0.006734736
0.0183,0.85736477,0.294501406,0.341307787,43.02749704,0.006844493
0.0186,0.857216075,0.296741382,0.343923737,42.67105155,0.006954161
0.0189,0.857067378,0.298959525,0.346514663,42.32314696,0.007063736
0.0192,0.856918679,0.301156328,0.349081129,41.98332488,0.007173237
0.0195,0.856769981,0.303332263,0.35162368,41.65129965,0.00728266
0.0198,0.856621285,0.305487786,0.354142838,41.32676924,0.007392007
0.0201,0.856472593,0.307623334,0.356639108,41.00941704,0.007501285
0.0204,0.856323906,0.309739331,0.359112974,40.69920415,0.007610452
0.0207,0.856175225,0.311836184,0.361564903,40.39567245,0.007719544
0.021,0.856026553,0.313914284,0.363995348,40.09843026,0.007828593
0.0213,0.855877889,0.315974012,0.366404743,39.80773217,0.007937504
0.0216,0.855729236,0.318015732,0.368793508,39.52281971,0.008046383
0.0219,0.855580595,0.320039799,0.37116205,39.24387981,0.008155152
0.0222,0.855431966,0.322046553,0.37351076,38.97056635,0.008263841
0.0225,0.855283351,0.324036325,0.375840017,38.70261123,0.008372467
0.0228,0.855134752,0.326009436,0.37815019,38.43988936,0.008481019
0.0231,0.854986168,0.327966193,0.380441631,38.18226709,0.00858949
0.0234,0.854837602,0.329906896,0.382714686,37.92960282,0.008697874
0.0237,0.854689054,0.331831836,0.384969688,37.68174747,0.008806169
0.024,0.854540525,0.333741293,0.387206957,37.43854518,0.008914377
0.0243,0.854392016,0.33563554,0.389426809,37.19983387,0.009022501
0.0246,0.854243528,0.337514842,0.391629545,36.96544591,0.00913055
0.0249,0.854095061,0.339379454,0.393815459,36.73520873,0.009238533
0.0252,0.853946618,0.341229626,0.395984839,36.50894554,0.009346466
0.0255,0.853798198,0.343065598,0.398137959,36.2869009,0.009454255
0.0258,0.853649802,0.344887607,0.400275091,36.06859102,0.009561993
0.0261,0.853501431,0.34669588,0.402396495,35.85392176,0.009669678
0.0264,0.853353087,0.348490638,0.404502426,35.64308855,0.009777229
0.0267,0.853204768,0.350272098,0.40659313,35.4355522,0.009884765
0.027,0.853056478,0.352040468,0.408668849,35.23168547,0.009992155
0.0273,0.852908215,0.353795953,0.410729816,35.03100436,0.010099509
0.0276,0.85275998,0.355538751,0.412776258,34.83356634,0.010206786
0.0279,0.852611775,0.357269055,0.414808397,34.63943151,0.010313941
0.0282,0.8524636,0.358987055,0.416826449,34.4482249,0.010421061
0.0285,0.852315456,0.360692932,0.418830624,34.25993848,0.010528126
0.0288,0.852167343,0.362386866,0.420821127,34.07482067,0.010635034
0.0291,0.852019261,0.36406903,0.422798156,33.89246803,0.010741886
0.0294,0.851871212,0.365739595,0.424761908,33.71283617,0.010848675
0.0297,0.851723196,0.367398726,0.42671257,33.53587802,0.010955393
0.03,0.851575214,0.369046584,0.428650328,33.36154394,0.011062036
0.0303,0.851427265,0.370683327,0.430575363,33.18978181,0.011168598
0.0306,0.851279351,0.372309108,0.432487851,33.02053718,0.011275077
0.0309,0.851131472,0.373924079,0.434387963,32.85375336,0.011381472
0.0312,0.850983628,0.375528384,0.436275868,32.68937161,0.011487782
0.0315,0.85083582,0.377122168,0.438151729,32.52733123,0.011594009
0.0318,0.850688049,0.37870557,0.440015707,32.3675697,0.011700155
0.0321,0.850540315,0.380278727,0.441867957,32.21002286,0.011806224
0.0324,0.850392618,0.381841773,0.443708633,32.05462502,0.011912221
0.0327,0.850244959,0.383394837,0.445537884,31.90130913,0.012018154
0.033,0.850097338,0.384938048,0.447355856,31.75000692,0.01212403
0.0333,0.849949756,0.386471529,0.449162692,31.60078463,0.012229808
0.0336,0.849802213,0.387995405,0.450958531,31.45368765,0.01233545
0.0339,0.84965471,0.389509793,0.452743511,31.30843328,0.01244105
0.0342,0.849507246,0.39101481,0.454517765,31.16494878,0.012546621
0.0345,0.849359822,0.392510572,0.456281424,31.02342194,0.012652072
0.0348,0.849212439,0.39399719,0.458034616,30.88380089,0.012757406
0.0351,0.849065098,0.395474774,0.459777467,30.74576494,0.01286274
0.0354,0.848917797,0.39694343,0.461510099,30.6095629,0.012967955
0.0357,0.848770538,0.398403265,0.463232633,30.47512777,0.013073063
0.036,0.848623321,0.399854382,0.464945186,30.34208535,0.01317821
0.0363,0.848476147,0.401296881,0.466647874,30.21106221,0.013283111
0.0366,0.848329015,0.402730861,0.46834081,30.08133956,0.013388063
0.0369,0.848181926,0.404156419,0.470024105,29.95336384,0.013492856
0.0372,0.848034881,0.405573651,0.471697868,29.82678936,0.01359763
0.0375,0.847887879,0.406982649,0.473362206,29.70181227,0.013702283
0.0378,0.847740921,0.408383506,0.475017222,29.57820763,0.013806905
0.0381,0.847594007,0.40977631,0.476663019,29.45617253,0.01391139
0.0384,0.847447138,0.41116115,0.478299698,29.3353537,0.014015892
0.0387,0.847300313,0.412538113,0.479927358,29.21619658,0.014120185
0.039,0.847153534,0.413907282,0.481546095,29.09808209,0.014224555
0.0393,0.8470068,0.415268741,0.483156005,28.98162481,0.014328691
0.0396,0.846860112,0.416622571,0.48475718,28.86630758,0.014432832
0.0399,0.846713469,0.417968854,0.486349712,28.75218772,0.014536941
0.0402,0.846566873,0.419307667,0.487933691,28.63958743,0.014640842
0.0405,0.846420323,0.420639087,0.489509205,28.52800785,0.014744776
0.0408,0.846273819,0.421963191,0.491076341,28.41763824,0.014848637
0.0411,0.846127363,0.423280053,0.492635184,28.30867267,0.01495231
0.0414,0.845980954,0.424589747,0.494185817,28.20070988,0.015055995
0.0417,0.845834591,0.425892343,0.495728324,28.09374857,0.015159684
0.042,0.845688277,0.427187914,0.497262783,27.98826233,0.01526311
0.0423,0.84554201,0.428476528,0.498789276,27.88377861,0.015366516
0.0426,0.845395792,0.429758254,0.500307879,27.78027144,0.015469908
0.0429,0.845249621,0.43103316,0.501818669,27.67773751,0.01557328
0.0432,0.845103499,0.43230131,0.503321723,27.57653906,0.015676416
0.0435,0.844957426,0.43356277,0.504817113,27.47632847,0.015779502
0.0438,0.844811401,0.434817604,0.506304912,27.37705985,0.015882553
0.0441,0.844665425,0.436065874,0.507785194,27.27872801,0.015985565
0.0444,0.844519499,0.437307643,0.509258026,27.18132734,0.016088532
0.0447,0.844373622,0.438542971,0.51072348,27.08502285,0.016191346
0.045,0.844227795,0.439771918,0.512181624,26.98974531,0.016294037
0.0453,0.844082018,0.440994543,0.513632523,26.89536083,0.016396677
0.0456,0.84393629,0.442210903,0.515076245,26.80186214,0.01649926
0.0459,0.843790613,0.443421056,0.516512855,26.70924161,0.016601784
0.0462,0.843644986,0.444625058,0.517942416,26.61749125,0.016704244
0.0465,0.84349941,0.445822964,0.519364991,26.5266027,0.016806636
0.0468,0.843353884,0.447014829,0.520780643,26.43656728,0.016908959
0.0471,0.84320841,0.448200705,0.522189432,26.34737596,0.017011209
0.0474,0.843062986,0.449380647,0.523591419,26.25901937,0.017113383
0.0477,0.842917613,0.450554705,0.524986663,26.17157967,0.017215419
0.048,0.842772292,0.45172293,0.526375221,26.08494266,0.017317383
0.0483,0.842627023,0.452885374,0.527757152,25.99909185,0.017419277
0.0486,0.842481805,0.454042086,0.529132512,25.91401672,0.0175211
0.0489,0.842336639,0.455193114,0.530501356,25.82970646,0.017622853
0.0492,0.842191524,0.456338507,0.53186374,25.74615001,0.017724534
0.0495,0.842046462,0.457478313,0.533219717,25.66333605,0.017826144
0.0498,0.841901452,0.458612578,0.534569342,25.58125304,0.017927682
0.0501,0.841756495,0.459741348,0.535912666,25.49988917,0.018029151
0.0504,0.84161159,0.460864669,0.537249741,25.41923246,0.01813055
0.0507,0.841466738,0.461982586,0.538580619,25.33927067,0.018231882
0.051,0.841321939,0.463095142,0.539905349,25.26003059,0.018333119
0.0513,0.841177192,0.464202382,0.541223981,25.18154022,0.018434233
0.0516,0.841032499,0.465304348,0.542536565,25.10372418,0.018535272
0.0519,0.840887859,0.466401083,0.543843147,25.02656934,0.018636237
0.0522,0.840743272,0.467492628,0.545143777,24.9500624,0.018737133
0.0525,0.840598738,0.468579025,0.546438501,24.87418991,0.018837961
0.0528,0.840454259,0.469660314,0.547727364,24.7989383,0.018938727
0.0531,0.840309833,0.470736536,0.549010413,24.72429385,0.019039433
0.0534,0.84016546,0.471807729,0.550287693,24.65024272,0.019140085
0.0537,0.840021142,0.472873934,0.551559248,24.57677098,0.019240686
0.054,0.839876878,0.473935188,0.552825122,24.5038646,0.019341243
0.0543,0.839732668,0.47499153,0.554085358,24.43168213,0.019441622
0.0546,0.839588512,0.476042997,0.555339999,24.36016277,0.019541864
0.0549,0.83944441,0.477089626,0.556589087,24.28918133,0.019642063
0.0552,0.839300364,0.478131453,0.557832663,24.21872324,0.019742224
0.0555,0.839156371,0.479168515,0.559070768,24.14877389,0.019842354
0.0558,0.839012434,0.480200848,0.560303444,24.07931862,0.01994246
0.0561,0.838868551,0.481228485,0.561530729,24.01040408,0.020042498
0.0564,0.838724723,0.482251463,0.562752664,23.94228335,0.02014225
0.0567,0.83858095,0.483269816,0.563969287,23.87462644,0.020241984
0.057,0.838437232,0.484283576,0.565180637,23.80741836,0.020341709
0.0573,0.83829357,0.485292778,0.566386751,23.74064414,0.020441433
0.0576,0.838149963,0.486297455,0.567587668,23.67428881,0.020541164
0.0579,0.838006411,0.487297638,0.568783424,23.60879413,0.020640514
0.0582,0.837862914,0.488293362,0.569974056,23.54370831,0.020739866
0.0585,0.837719474,0.489284656,0.5711596,23.47900903,0.020839238
0.0588,0.837576089,0.490271553,0.572340091,23.41468119,0.020938639
0.0591,0.837432759,0.491254083,0.573515565,23.35096823,0.021037846
0.0594,0.837289486,0.492232278,0.574686057,23.28787156,0.021136851
0.0597,0.837146268,0.493206167,0.575851601,23.22511275,0.0212359
0.06,0.837003107,0.494175781,0.577012231,23.16267669,0.021335003
0.0603,0.836860002,0.495141148,0.578167981,23.10080746,0.021433933
0.0606,0.836716953,0.496102299,0.579318883,23.03955982,0.021532629
0.0609,0.83657396,0.497059262,0.580464971,22.97860043,0.021631399
0.0612,0.836431023,0.498012066,0.581606277,22.91791428,0.021730253
0.0615,0.836288143,0.498960738,0.582742834,22.85794134,0.02182877
0.0618,0.836145319,0.499905307,0.583874672,22.79839691,0.021927213
0.0621,0.836002553,0.500845801,0.585001823,22.73909058,0.022025762
0.0624,0.835859842,0.501782246,0.586124318,22.68016783,0.022124274
0.0627,0.835717189,0.50271467,0.587242187,22.62197394,0.022222405
0.063,0.835574592,0.503643099,0.588355462,22.56398249,0.022320665
0.0633,0.835432052,0.504567559,0.589464171,22.50617885,0.022419068
0.0636,0.835289569,0.505488077,0.590568344,22.44923161,0.022516943
0.0639,0.835147143,0.506404679,0.591668011,22.39248778,0.022614936
0.0642,0.835004775,0.507317389,0.5927632,22.33589595,0.022713098
0.0645,0.834862463,0.508226233,0.593853941,22.28006281,0.022810808
0.0648,0.834720209,0.509131236,0.59494026,22.2244973,0.02290856
0.0651,0.834578012,0.510032422,0.596022186,22.16904783,0.02300651
0.0654,0.834435872,0.510929817,0.597099748,22.11435373,0.02310399
0.0657,0.83429379,0.511823443,0.598172971,22.05989552,0.023201535
0.066,0.834151765,0.512713326,0.599241884,22.00551734,0.023299308
0.0663,0.834009798,0.513599487,0.600306513,21.95198443,0.023396495
0.0666,0.833867888,0.514481952,0.601366884,21.89856103,0.02349387
0.0669,0.833726036,0.515360742,0.602423023,21.84531309,0.023591364
0.0672,0.833584242,0.516235882,0.603474958,21.79282938,0.023688337
0.0675,0.833442506,0.517107392,0.604522712,21.74036717,0.023785587
0.0678,0.833300827,0.517975297,0.605566312,21.68831934,0.023882685
0.0681,0.833159207,0.518839617,0.606605783,21.6367581,0.023979545
0.0684,0.833017644,0.519700375,0.607641149,21.58518261,0.024076719
0.0687,0.83287614,0.520557593,0.608672435,21.53434998,0.02417336
0.069,0.832734694,0.521411291,0.609699665,21.48363573,0.024270161
0.0693,0.832593305,0.522261492,0.610722864,21.43313737,0.024367011
0.0696,0.832451975,0.523108216,0.611742056,21.38326677,0.024463438
0.0699,0.832310704,0.523951484,0.612757263,21.33332368,0.024560237
0.0702,0.83216949,0.524791317,0.613768509,21.28406885,0.024656532
0.0705,0.832028335,0.525627735,0.614775818,21.23492809,0.024752979
0.0708,0.831887238,0.526460758,0.615779212,21.18603428,0.024849424
0.0711,0.8317462,0.527290406,0.616778714,21.13767693,0.024945523
0.0714,0.83160522,0.528116699,0.617774346,21.08918951,0.025042058
0.0717,0.831464299,0.528939657,0.618766131,21.04156117,0.025137852
0.072,0.831323437,0.5297593,0.61975409,20.99381466,0.025234066
0.0723,0.831182633,0.530575645,0.620738245,20.94657098,0.025329952
0.0726,0.831041888,0.531388713,0.621718618,20.89954539,0.02542585
0.0729,0.830901201,0.532198522,0.622695231,20.8526958,0.025521809
0.0732,0.830760574,0.533005091,0.623668103,20.80637063,0.025617399
0.0735,0.830620005,0.533808438,0.624637257,20.75992429,0.02571341
0.0738,0.830479495,0.534608582,0.625602713,20.71427865,0.025808699
0.0741,0.830339044,0.53540554,0.626564491,20.66840092,0.025904546
0.0744,0.830198653,0.536199332,0.627522612,20.62325695,0.025999741
0.0747,0.83005832,0.536989974,0.628477096,20.57801469,0.026095325
0.075,0.829918046,0.537777484,0.629427963,20.53329238,0.026190514
0.0753,0.829777831,0.538561879,0.630375233,20.48866395,0.026285847
0.0756,0.829637676,0.539343178,0.631318925,20.4443711,0.026381011
0.0759,0.829497579,0.540121397,0.632259058,20.40033454,0.026476105
0.0762,0.829357542,0.540896553,0.633195652,20.35647862,0.026571224
0.0765,0.829217564,0.541668663,0.634128727,20.31301167,0.026666093
0.0768,0.829077646,0.542437743,0.6350583,20.26959981,0.026761147
0.0771,0.828937786,0.54320381,0.63598439,20.22667994,0.026855807
0.0774,0.828797987,0.543966881,0.636907017,20.18371894,0.026950776
0.0777,0.828658246,0.544726972,0.637826198,20.14132337,0.027045242
0.078,0.828518565,0.545484098,0.638741951,20.09881968,0.027140106
0.0783,0.828378944,0.546238276,0.639654295,20.05692543,0.027234397
0.0786,0.828239382,0.546989522,0.640563247,20.01488516,0.027329136
0.0789,0.82809988,0.54773785,0.641468825,19.97346904,0.027423271
0.0792,0.827960437,0.548483278,0.642371047,19.93189794,0.027517865
0.0795,0.827821054,0.549225819,0.64326993,19.89093661,0.027611863
0.0798,0.827681731,0.549965489,0.644165491,19.8498401,0.027706293
0.0801,0.827542467,0.550702304,0.645057748,19.80931008,0.027800176
0.0804,0.827403263,0.551436279,0.645946716,19.7686932,0.027894422
0.0807,0.827264119,0.552167427,0.646832414,19.72857092,0.027988212
0.081,0.827125035,0.552895764,0.647714857,19.68843837,0.028082256
0.0813,0.82698601,0.553621305,0.648594063,19.64870016,0.028175976
0.0816,0.826847046,0.554344064,0.649470047,19.60905629,0.028269798
0.0819,0.826708141,0.555064054,0.650342825,19.56967844,0.028363473
0.0822,0.826569296,0.555781292,0.651212414,19.53052725,0.028457055
0.0825,0.826430511,0.55649579,0.65207883,19.49148603,0.028550711
0.0828,0.826291787,0.557207562,0.652942089,19.45283113,0.028644034
0.0831,0.826153122,0.557916623,0.653802205,19.41410281,0.028737698
0.0834,0.826014517,0.558622986,0.654659195,19.3759475,0.028830744
0.0837,0.825875972,0.559326665,0.655513074,19.33750839,0.028924443
0.084,0.825737488,0.560027673,0.656363858,19.29985558,0.029017195
0.0843,0.825599064,0.560726024,0.65721156,19.26185301,0.0291107
0.0846,0.825460699,0.56142173,0.658056198,19.22453433,0.029203398
0.0849,0.825322395,0.562114806,0.658897784,19.18704441,0.029296581
0.0852,0.825184152,0.562805264,0.659736335,19.14996242,0.029389367
0.0855,0.825045968,0.563493117,0.660571864,19.11298735,0.029482211
0.0858,0.824907845,0.564178379,0.661404387,19.07611828,0.029575114
0.0861,0.824769782,0.564861061,0.662233917,19.03965992,0.029667602
0.0864,0.824631779,0.565541176,0.663060469,19.00298017,0.029760657
0.0867,0.824493837,0.566218737,0.663884058,18.96704002,0.029852773
0.087,0.824355955,0.566893757,0.664704696,18.93077557,0.029945617
0.0873,0.824218134,0.567566248,0.665522399,18.89510537,0.030037739
0.0876,0.824080373,0.568236222,0.666337179,18.85936785,0.030130184
0.0879,0.823942672,0.56890369,0.667149051,18.82383355,0.03022252
0.0882,0.823805032,0.569568666,0.667958029,18.78862372,0.03031455
0.0885,0.823667452,0.570231162,0.668764125,18.753202,0.030407136
0.0888,0.823529933,0.570891188,0.669567353,18.71852032,0.030498735
