phi0,omega,M,Q,R_eff,C_eff
0,0.866025404,0,0,,0
0.0003,0.865821258,0.014058119,0.016945925,242.9008063,5.79E-05
0.0009,0.865767004,0.067976558,0.078507678,194.8817928,0.000348809
0.0012,0.865640042,0.078694856,0.090891755,169.7754273,0.000463523
0.0015,0.865508483,0.088177168,0.101855894,151.933387,0.000580367
0.0018,0.865373557,0.096810762,0.111829665,138.7639859,0.000697665
0.0021,0.865235926,0.104855231,0.120976962,128.8008667,0.000814088
0.0024,0.865096213,0.112276702,0.129711624,120.171319,0.000934305
0.0027,0.864954566,0.119347183,0.137888987,113.2954716,0.001053415
0.003,0.864811271,0.126077085,0.145673943,107.4783202,0.001173047
0.0033,0.864666502,0.132518569,0.153126696,102.4733241,0.001293201
0.0036,0.864520392,0.138712069,0.160293912,98.10767027,0.001413876
0.0039,0.864373047,0.144689667,0.167212622,94.25570078,0.001535076
0.0042,0.864224553,0.150477321,0.17391278,90.82405194,0.0016568
0.0045,0.864074979,0.156096375,0.180419021,87.7413133,0.001779052
0.0048,0.863924385,0.161564629,0.186751887,84.95220275,0.00190183
0.0051,0.86377282,0.166897106,0.192928717,82.41284763,0.002025135
0.0054,0.863620324,0.17210662,0.1989643,80.08794736,0.00214897
0.0057,0.863466935,0.177204204,0.204871366,77.94895599,0.002273337
0.006,0.863312683,0.182199433,0.210660969,75.97240115,0.002398232
0.0063,0.863157594,0.187100683,0.216342772,74.1385691,0.002523662
0.0066,0.863001694,0.191915322,0.221925282,72.43118996,0.002649623
0.0069,0.862845002,0.196649879,0.227416033,70.83617513,0.002776122
0.0072,0.862687537,0.201310165,0.232821733,69.34190531,0.002903153
0.0075,0.862529316,0.20590138,0.238148383,67.93811315,0.00303072
0.0078,0.862370353,0.210428197,0.243401378,66.61597025,0.003158825
0.0081,0.862210661,0.214894835,0.248585586,65.36777036,0.003287474
0.0084,0.862050253,0.219305114,0.253705421,64.18714558,0.003416652
0.0087,0.861889139,0.22366251,0.258764894,63.06794145,0.003546374
0.009,0.861727329,0.227970194,0.263767664,62.0050331,0.00367664
0.0093,0.861564831,0.232231064,0.268717081,60.99396549,0.003807443
0.0096,0.861401655,0.236447784,0.273616218,60.0305395,0.003938792
0.0099,0.861237806,0.240622803,0.278467904,59.11110868,0.004070687
0.0102,0.861073293,0.244758378,0.283274748,58.23253844,0.004203121
0.0105,0.860908121,0.248856598,0.288039161,57.39167497,0.00433611
0.0108,0.860742296,0.252919399,0.292763379,56.58621259,0.004469629
0.0111,0.860575824,0.256948576,0.297449477,55.81342818,0.004603705
0.0114,0.860408708,0.260945801,0.302099387,55.0712965,0.004738327
0.0117,0.860240954,0.264912631,0.306714907,54.35772196,0.004873505
0.012,0.860072566,0.268850521,0.31129772,53.67112042,0.005009221
0.0123,0.859903548,0.272760829,0.315849395,53.00978163,0.005145481
0.0126,0.859733903,0.276644829,0.320371406,52.3719462,0.00528231
0.0129,0.859563635,0.280503715,0.324865133,51.75646498,0.005419685
0.0132,0.859392747,0.284338608,0.329331872,51.16211456,0.005557601
0.0135,0.859221241,0.288150564,0.333772845,50.58763426,0.005696067
0.0138,0.859049121,0.291940575,0.3381892,50.03175225,0.005835106
0.0141,0.85887639,0.295709578,0.34258202,49.49373364,0.005974687
0.0144,0.858703048,0.299458456,0.346952328,48.97254812,0.006114823
0.0147,0.8585291,0.303188043,0.35130109,48.46729243,0.006255519
0.015,0.858354547,0.30689913,0.35562922,47.9773536,0.00639675
0.0153,0.85817939,0.310592464,0.359937584,47.50162092,0.006538566
0.0156,0.858003633,0.314268753,0.364227003,47.03980827,0.006680911
0.0159,0.857827276,0.317928667,0.368498254,46.59096604,0.006823827
0.0162,0.857650321,0.321572846,0.372752076,46.1545827,0.006967301
0.0165,0.857472771,0.325201894,0.376989171,45.73010686,0.00711133
0.0168,0.857294626,0.328816387,0.381210206,45.31695192,0.007255925
0.0171,0.857115888,0.332416873,0.385415818,44.91459453,0.007401088
0.0174,0.856936559,0.336003872,0.38960661,44.52283215,0.007546777
0.0177,0.856756639,0.339577882,0.393783159,44.14081742,0.007693058
0.018,0.856576131,0.343139376,0.397946015,43.76841277,0.007839886
0.0183,0.856395035,0.346688805,0.402095701,43.40520926,0.007987263
0.0186,0.856213352,0.3502266,0.406232719,43.05072112,0.008135209
0.0189,0.856031084,0.353753173,0.410357547,42.70463472,0.008283719
0.0192,0.855848231,0.357268917,0.414470641,42.366617,0.008432793
0.0195,0.855664795,0.360774206,0.418572438,42.03631747,0.008582441
0.0198,0.855480777,0.364269401,0.422663357,41.71357958,0.008732634
0.0201,0.855296178,0.367754846,0.426743796,41.39811503,0.008883372
0.0204,0.855110998,0.371230867,0.430814139,41.08935129,0.009034722
0.0207,0.854925239,0.374697782,0.434874752,40.78755434,0.009186571
0.021,0.854738901,0.37815589,0.438925987,40.49191239,0.009339047
0.0213,0.854551986,0.381605482,0.442968181,40.20272797,0.00949203
0.0216,0.854364494,0.385046833,0.447001656,39.91946721,0.009645591
0.0219,0.854176426,0.388480209,0.451026721,39.64191672,0.009799733
0.0222,0.853987783,0.391905864,0.455043674,39.36993699,0.009954445
0.0225,0.853798566,0.395324044,0.4590528,39.10337864,0.010109716
0.0228,0.853608776,0.39873498,0.463054373,38.8420831,0.010265541
0.0231,0.853418413,0.402138899,0.467048654,38.58588323,0.010421918
0.0234,0.853227478,0.405536016,0.471035896,38.33460405,0.01057885
0.0237,0.853035972,0.408926537,0.475016341,38.08806348,0.010736344
0.024,0.852843896,0.412310663,0.478990223,37.84607307,0.010894411
0.0243,0.8517455,0.415688582,0.482957763,37.60856239,0.01105303
0.0246,0.852458036,0.419060479,0.486919178,37.37513052,0.011212281
0.0249,0.852264254,0.422426529,0.490874673,37.14617446,0.011372006
0.0252,0.852069905,0.425786901,0.494824446,36.92104353,0.011532364
0.0255,0.851874989,0.429141758,0.498768688,36.70003809,0.011693224
0.0258,0.851679508,0.432491255,0.502707583,36.48271584,0.011854689
0.0261,0.851483462,0.435835542,0.506641306,36.26921715,0.012016679
0.0264,0.851286852,0.439174763,0.510570026,36.05912865,0.012179295
0.0267,0.851089679,0.442509056,0.514493906,35.85282177,0.012342377
0.027,0.850891944,0.445838554,0.518413102,35.64969963,0.012506096
0.0273,0.850693647,0.449163383,0.522327764,35.44989639,0.012670372
0.0276,0.850494789,0.452483666,0.526238037,35.25349278,0.012835144
0.0279,0.850295371,0.455799521,0.530144058,35.0601099,0.013000516
0.0282,0.850095394,0.45911106,0.534045962,34.86970356,0.013166474
0.0285,0.849894859,0.462418391,0.537943876,34.68222626,0.013333008
0.0288,0.849693766,0.465721618,0.541837923,34.49776904,0.01350005
0.0291,0.849492117,0.469020841,0.54572822,34.31616128,0.013667637
0.0294,0.849289912,0.472316155,0.549614881,34.13726826,0.013835792
0.0297,0.849087152,0.47560765,0.553498014,33.96103068,0.014004512
0.03,0.848883838,0.478895416,0.557377723,33.78738668,0.014173793
0.0303,0.848679971,0.482179536,0.561254109,33.61627198,0.014343635
0.0306,0.848475551,0.48546009,0.565127267,33.44762005,0.01451404
0.0309,0.848270581,0.488737156,0.568997289,33.28136223,0.014685011
0.0312,0.84806506,0.492010806,0.572864262,33.11742796,0.014856553
0.0315,0.84785899,0.495281112,0.576728271,32.95598572,0.015028563
0.0318,0.847652371,0.498548141,0.580589396,32.7967752,0.015201133
0.0321,0.847445205,0.501811957,0.584447713,32.63971424,0.015374275
0.0324,0.847237492,0.505072621,0.588303297,32.48472521,0.015548004
0.0327,0.847029234,0.508330191,0.592156218,32.33172932,0.015722332
0.033,0.846820432,0.511584725,0.596006542,32.18100564,0.015897102
0.0333,0.846611087,0.514836273,0.599854334,32.03228221,0.016072419
0.0336,0.846401199,0.518084888,0.603699653,31.88535355,0.016248366
0.0339,0.846190769,0.521330616,0.607542558,31.74034663,0.016424856
0.0342,0.8459798,0.524573503,0.611383105,31.59741666,0.016601785
0.0345,0.845768292,0.527813593,0.615221344,31.45607184,0.016779387
0.0348,0.845556246,0.531050926,0.619057325,31.31665353,0.016957461
0.0351,0.845343663,0.534285541,0.622891096,31.17900869,0.017136066
0.0354,0.845130544,0.537517473,0.626722701,31.0428601,0.017315333
0.0357,0.844916892,0.540746757,0.630552181,30.90873294,0.017494951
0.036,0.844702706,0.543973426,0.634379576,30.77583691,0.017675342
0.0363,0.844487988,0.547197509,0.638204922,30.64501119,0.017856006
0.0366,0.844272739,0.550419035,0.642028255,30.51530204,0.018037476
0.0369,0.844056961,0.55363803,0.645849607,30.38759248,0.018219213
0.0372,0.843840654,0.556854518,0.649669008,30.26096388,0.018401744
0.0375,0.843623821,0.560068522,0.653486486,30.13620997,0.018584571
0.0378,0.843406462,0.563280062,0.657302067,30.01262806,0.018768102
0.0381,0.843188579,0.566489159,0.661115776,29.89058263,0.018952095
0.0384,0.842970173,0.569695829,0.664927635,29.76997024,0.019136594
0.0387,0.842751246,0.572900088,0.668737663,29.65042973,0.019321814
0.039,0.842531798,0.576101951,0.67254588,29.53268969,0.019507263
0.0393,0.842311832,0.579301431,0.6763523,29.41602118,0.019693399
0.0396,0.842091349,0.582498537,0.68015694,29.30047589,0.019880173
0.0399,0.841870349,0.585693282,0.683959812,29.18658472,0.020067209
0.0402,0.841648836,0.588885672,0.687760928,29.07373605,0.020254902
0.0405,0.841426809,0.592075714,0.691560296,28.96192933,0.020443242
0.0408,0.841204271,0.595263415,0.695357925,28.85160361,0.020631901
0.0411,0.840981224,0.598448779,0.699153822,28.74243083,0.020821091
0.0414,0.840757668,0.601631808,0.70294799,28.63427557,0.021010897
0.0417,0.840533606,0.604812504,0.706740434,28.52713504,0.021201306
0.042,0.840309038,0.607990868,0.710531155,28.42137282,0.02139203
0.0423,0.840083967,0.611166899,0.714320154,28.31670155,0.021583266
0.0426,0.839858395,0.614340596,0.718107429,28.2130132,0.021775079
0.0429,0.839632322,0.617511954,0.721892979,28.11030286,0.02196746
0.0432,0.839405751,0.62068097,0.725676799,28.00856516,0.022160399
0.0435,0.839178683,0.623847639,0.729458884,27.9079964,0.022353724
0.0438,0.83895112,0.627011954,0.733239229,27.80851241,0.022547483
0.0441,0.838723064,0.630173909,0.737017825,27.7099612,0.022741782
0.0444,0.838494517,0.633333494,0.740794664,27.6123355,0.022936615
0.0447,0.83826548,0.6364907,0.744569735,27.51562761,0.023131971
0.045,0.838035955,0.639645518,0.748343028,27.41982941,0.023327845
0.0453,0.837805944,0.642797935,0.75211453,27.3249324,0.023524228
0.0456,0.837575449,0.64594794,0.755884228,27.23092766,0.023721114
0.0459,0.837344471,0.649095519,0.759652106,27.13780589,0.023918497
0.0462,0.837113014,0.652240658,0.76341815,27.04564589,0.024116291
0.0465,0.836881077,0.655383344,0.767182342,26.95438137,0.024314539
0.0468,0.836648665,0.658523559,0.770944665,26.86394859,0.024513282
0.0471,0.836415777,0.661661288,0.7747051,26.77433682,0.024712518
0.0474,0.836182417,0.664796513,0.778463628,26.68553497,0.024912242
0.0477,0.835948587,0.667929216,0.782220227,26.59753164,0.025112451
0.048,0.835714288,0.671059378,0.785974876,26.51031513,0.025313142
0.0483,0.835479523,0.67418698,0.789727552,26.42387344,0.025514313
0.0486,0.835244293,0.677312002,0.793478232,26.33819429,0.025715962
0.0489,0.835008601,0.680434422,0.797226892,26.25326511,0.025918088
0.0492,0.834772448,0.683554219,0.800973505,26.16907308,0.026120689
0.0495,0.834535838,0.68667137,0.804718047,26.08560512,0.026323766
0.0498,0.834298772,0.689785852,0.80846049,26.00284794,0.026527319
0.0501,0.834061251,0.692897643,0.812200807,25.92078799,0.02673135
0.0504,0.83382328,0.696006716,0.815938969,25.83952566,0.026935739
0.0507,0.833584859,0.699113048,0.819674946,25.75898509,0.027140551
0.051,0.833345991,0.702216613,0.823408709,25.67911925,0.027345822
0.0513,0.833106678,0.705317385,0.827140227,25.5999136,0.027551553
0.0516,0.832866922,0.708415337,0.830869468,25.52135342,0.02775775
0.0519,0.832626726,0.711510442,0.8345964,25.44342384,0.027964414
0.0522,0.832386092,0.714602672,0.838320991,25.36610984,0.028171552
0.0525,0.832145023,0.717691999,0.842043207,25.28939625,0.028379167
0.0528,0.83190352,0.720778395,0.845763013,25.21326782,0.028587266
0.0531,0.831661586,0.723861829,0.849480374,25.13770916,0.028795855
0.0534,0.831419224,0.726942273,0.853195256,25.06292451,0.029004687
0.0537,0.831176436,0.730019696,0.856907622,24.98881025,0.029213864
0.054,0.830933224,0.733094067,0.860617435,24.91523628,0.029423525
0.0543,0.830689591,0.736165356,0.864324658,24.84218657,0.029633678
0.0546,0.830445539,0.73923353,0.868029253,24.76964507,0.029844333
0.0549,0.830201071,0.742298558,0.871731182,24.6975957,0.030055499
0.0552,0.829956189,0.745360407,0.875430405,24.62615303,0.030267026
0.0555,0.829710896,0.748419045,0.879126884,24.55549569,0.030478678
0.0558,0.829465195,0.751474439,0.882820579,24.4852977,0.030690843
0.0561,0.829219087,0.754526554,0.886511448,24.41554259,0.030903534
0.0564,0.828972576,0.757575358,0.89019945,24.34621389,0.031116763
0.0567,0.828725664,0.760620815,0.893884545,24.27737036,0.031330445
0.057,0.828478353,0.763662891,0.897566691,24.20938551,0.031544084
0.0573,0.828230647,0.766701552,0.901245844,24.14179209,0.03175827
0.0576,0.827982549,0.769736763,0.904921963,24.07457343,0.031973018
0.0579,0.827734059,0.772768486,0.908595003,24.00771294,0.032188343
0.0582,0.827485183,0.775796688,0.912264922,23.94159204,0.032403722
0.0585,0.827235921,0.778821332,0.915931675,23.87601833,0.032619398
0.0588,0.826986277,0.78184238,0.919595217,23.81076612,0.032835667
0.0591,0.826736254,0.784859798,0.923255505,23.74581882,0.033052547
0.0594,0.826485854,0.787873547,0.926912492,23.68156444,0.033269489
0.0597,0.826235081,0.790883592,0.930566133,23.61786036,0.033486674
0.06,0.825983936,0.793889893,0.934216382,23.5544234,0.033704493
0.0603,0.825732423,0.796892415,0.937863193,23.49123711,0.033922965
0.0606,0.825480545,0.799891118,0.94150652,23.42891701,0.034141191
0.0609,0.825228304,0.802885965,0.945146315,23.36692577,0.034359931
0.0612,0.824975704,0.805876918,0.948782531,23.30514662,0.034579354
0.0615,0.824722747,0.808863939,0.952415121,23.24384833,0.034799054
0.0618,0.824469435,0.811846988,0.956044037,23.183235,0.03501871
0.0621,0.824215773,0.814826027,0.959669232,23.12279456,0.035239081
0.0624,0.823961763,0.817801017,0.963290656,23.06255784,0.035460118
0.0627,0.823707407,0.82077192,0.966908261,23.00325171,0.035680691
0.063,0.82345271,0.823738695,0.970521998,22.9440788,0.035902017
0.0633,0.823197673,0.826701303,0.974131819,22.88502339,0.036124119
0.0636,0.8229423,0.829659706,0.977737674,22.82686851,0.036345752
0.0639,0.822686594,0.832613863,0.981339514,22.76888952,0.036568049
0.0642,0.822430557,0.835563734,0.984937289,22.71098838,0.036791166
0.0645,0.822174194,0.838509281,0.988530949,22.65397049,0.037013789
0.0648,0.821917506,0.841450462,0.992120444,22.59710969,0.037237084
0.0651,0.821660497,0.844387239,0.995705724,22.54028703,0.037461246
0.0654,0.82140317,0.84731957,0.999286739,22.48443576,0.037684716
0.0657,0.821145529,0.850247416,1.002863437,22.42861565,0.037909046
0.066,0.820887575,0.853170736,1.00643577,22.37296763,0.038134
0.0663,0.820629313,0.856089491,1.010003684,22.31813605,0.038358467
0.0666,0.820370745,0.85900364,1.013567131,22.26327765,0.03858388
0.0669,0.820111875,0.861913142,1.017126058,22.20884766,0.038809449
0.0672,0.819852705,0.864817958,1.020680414,22.15493726,0.039034999
0.0675,0.819593239,0.867718046,1.024230149,22.10096052,0.039261554
0.0678,0.81933348,0.870613366,1.02777521,22.04777075,0.039487592
0.0681,0.819073431,0.873503878,1.031315547,21.9947002,0.039714289
0.0684,0.818813096,0.876389542,1.034851107,21.94177514,0.039941597
0.0687,0.818552477,0.879270316,1.03838184,21.88959377,0.040168416
0.069,0.818291578,0.882146161,1.041907693,21.83728118,0.040396337
0.0693,0.818030403,0.885017035,1.045428615,21.78563676,0.040623877
0.0696,0.817768953,0.887882899,1.048944553,21.73416949,0.040851936
0.0699,0.817507233,0.890743713,1.052455457,21.68282386,0.041080614
0.0702,0.817245245,0.893599434,1.055961274,21.63218329,0.041308795
0.0705,0.816982994,0.896450025,1.059461953,21.58134721,0.041538187
0.0708,0.816720482,0.899295443,1.062957441,21.53131581,0.04176686
0.0711,0.816457713,0.902135649,1.066447686,21.48126097,0.041996401
0.0714,0.816194689,0.904970602,1.069932637,21.43155951,0.042226073
0.0717,0.815931415,0.907800263,1.073412242,21.38226588,0.042455756
0.072,0.815667893,0.910624591,1.076886449,21.33290608,0.042686383
0.0723,0.815404127,0.913443547,1.080355206,21.28435303,0.0429162
0.0726,0.81514012,0.91625709,1.083818461,21.2355155,0.043147391
0.0729,0.814875876,0.919065181,1.087276163,21.18751277,0.043377682
0.0732,0.814611397,0.921867779,1.090728259,21.13936864,0.04360905
0.0735,0.814346688,0.924664846,1.094174698,21.09173468,0.043840152
0.0738,0.814081751,0.927456341,1.097615428,21.04426224,0.044071697
0.0741,0.81381659,0.930242226,1.101050397,20.99700763,0.044303562
0.0744,0.813551208,0.933022461,1.104479555,20.95018469,0.044535286
0.0747,0.81328561,0.935797006,1.107902849,20.90331973,0.044767866
0.075,0.813019797,0.938565823,1.111320229,20.85712368,0.044999773
0.0753,0.812753773,0.941328873,1.114731642,20.81065839,0.045233017
0.0756,0.812487543,0.944086116,1.118137038,20.76506618,0.045465115
0.0759,0.812221109,0.946837515,1.121536366,20.71905249,0.045698881
0.0762,0.811954474,0.94958303,1.124929574,20.67399852,0.045931271
0.0765,0.811687643,0.952322623,1.128316612,20.62854004,0.046165294
0.0768,0.811420618,0.955056257,1.131697429,20.58390635,0.046398203
0.0771,0.811153403,0.957783892,1.135071974,20.53897947,0.046632497
0.0774,0.810886001,0.960505491,1.138440196,20.4947747,0.046865872
0.0777,0.810618417,0.963221016,1.141802046,20.45035549,0.047100453
0.078,0.810350652,0.96593043,1.145157473,20.40658797,0.047334245
0.0783,0.810082712,0.968633695,1.148506427,20.36265225,0.047569132
0.0786,0.809814598,0.971330774,1.151848858,20.31932996,0.047803288
0.0789,0.809546315,0.97402163,1.155184716,20.27585331,0.048038503
0.0792,0.809277867,0.976706226,1.158513951,20.23298391,0.04827297
0.0795,0.809009255,0.979384524,1.161836515,20.18994169,0.048508537
0.0798,0.808740485,0.98205649,1.165152357,20.14753247,0.048743264
0.0801,0.80847156,0.984722086,1.168461429,20.10489989,0.048979209
0.0804,0.808202482,0.987381277,1.171763682,20.0629578,0.049214143
0.0807,0.807933256,0.990034026,1.175059066,20.02070991,0.049450496
0.081,0.807663884,0.992680298,1.178347534,19.97924155,0.049685585
0.0813,0.807394371,0.995320057,1.181629037,19.93735328,0.049922377
0.0816,0.80712472,0.997953268,1.184903527,19.89636487,0.050157568
0.0819,0.806854935,1.000579896,1.188170956,19.8548679,0.050394689
0.0822,0.806585018,1.003199907,1.191431276,19.81430847,0.050630074
0.0825,0.806314973,1.005813265,1.194684439,19.77330611,0.050867228
0.0828,0.806044804,1.008419937,1.197930399,19.73305263,0.051103089
0.0831,0.805774515,1.011019888,1.201169108,19.69255044,0.051340221
0.0834,0.805504108,1.013613084,1.204400519,19.65257726,0.051576598
0.0837,0.805233588,1.016199492,1.207624587,19.61258039,0.051813656
0.084,0.804962957,1.018779079,1.210841263,19.57286187,0.052050594
0.0843,0.80469222,1.02135181,1.214050503,19.5333751,0.052287524
0.0846,0.804421379,1.023917654,1.217252261,19.49388565,0.052525067
0.0849,0.804150439,1.026476578,1.22044649,19.45491335,0.052761817
0.0852,0.803879402,1.029028548,1.223633145,19.41562748,0.053000015
0.0855,0.803608273,1.031573534,1.226812182,19.37717363,0.053236533
0.0858,0.803337054,1.034111503,1.229983555,19.33825591,0.053474911
0.0861,0.803065749,1.036642424,1.233147219,19.30013415,0.053711669
0.0864,0.802794362,1.039166266,1.236303131,19.26174782,0.053949739
0.0867,0.802522896,1.041682996,1.239451247,19.22377286,0.05418723
0.087,0.802251355,1.044192585,1.242591522,19.18592114,0.054424939
0.0873,0.801979742,1.046695002,1.245723913,19.14806751,0.054663219
0.0876,0.80170806,1.049190216,1.248848378,19.11075321,0.054900516
0.0879,0.801436313,1.051678198,1.251964872,19.07299564,0.055139645
0.0882,0.801164505,1.054158918,1.255073353,19.03622117,0.05537648
0.0885,0.800892639,1.056632347,1.25817378,18.99901187,0.055615121
0.0888,0.800620718,1.059098455,1.261266109,18.96230204,0.055852842
0.0891,0.800348746,1.061557214,1.2643503,18.92564418,0.056090942
